cantGimnasios,cantPokeparadas,tamMochila,distanciaOriginal,distanciaNueva,cantPermutacionesParaMejorar,cantPermutacionesParaMantener,cantReemplazosParaMejorar,cantReemplazosParaMantener,tamCamino,tiempo
1,0,12,0,0,0,0,0,0,1,5910
1,0,12,0,0,0,0,0,0,1,3373
1,0,12,0,0,0,0,0,0,1,2370
1,0,12,0,0,0,0,0,0,1,1627
1,0,12,0,0,0,0,0,0,1,1596
1,0,12,0,0,0,0,0,0,1,1489
1,0,12,0,0,0,0,0,0,1,1520
1,0,12,0,0,0,0,0,0,1,1869
1,0,12,0,0,0,0,0,0,1,1668
1,0,12,0,0,0,0,0,0,1,1594
1,0,12,0,0,0,0,0,0,1,1483
1,0,12,0,0,0,0,0,0,1,1473
1,0,12,0,0,0,0,0,0,1,1414
1,0,12,0,0,0,0,0,0,1,1624
1,0,12,0,0,0,0,0,0,1,1450
1,0,12,0,0,0,0,0,0,1,1574
1,0,12,0,0,0,0,0,0,1,1373
1,0,12,0,0,0,0,0,0,1,1407
1,0,12,0,0,0,0,0,0,1,1430
1,0,12,0,0,0,0,0,0,1,1430
1,0,12,0,0,0,0,0,0,1,1453
1,0,12,0,0,0,0,0,0,1,1440
1,0,12,0,0,0,0,0,0,1,1473
1,0,12,0,0,0,0,0,0,1,1439
1,0,12,0,0,0,0,0,0,1,1437
1,0,12,0,0,0,0,0,0,1,1450
1,0,12,0,0,0,0,0,0,1,1436
1,0,12,0,0,0,0,0,0,1,1547
1,0,12,0,0,0,0,0,0,1,1423
1,0,12,0,0,0,0,0,0,1,1463
1,0,12,0,0,0,0,0,0,1,1450
1,0,12,0,0,0,0,0,0,1,1420
1,0,12,0,0,0,0,0,0,1,1450
1,0,12,0,0,0,0,0,0,1,1484
1,0,12,0,0,0,0,0,0,1,1443
1,0,12,0,0,0,0,0,0,1,1499
1,0,12,0,0,0,0,0,0,1,1543
1,0,12,0,0,0,0,0,0,1,1463
1,0,12,0,0,0,0,0,0,1,1450
1,0,12,0,0,0,0,0,0,1,1486
1,0,12,0,0,0,0,0,0,1,1510
1,0,12,0,0,0,0,0,0,1,1466
1,0,12,0,0,0,0,0,0,1,1493
1,0,12,0,0,0,0,0,0,1,1473
1,0,12,0,0,0,0,0,0,1,1484
1,0,12,0,0,0,0,0,0,1,1483
1,0,12,0,0,0,0,0,0,1,1544
1,0,12,0,0,0,0,0,0,1,1520
1,0,12,0,0,0,0,0,0,1,1443
1,0,12,0,0,0,0,0,0,1,1500
1,0,12,0,0,0,0,0,0,1,1533
1,0,12,0,0,0,0,0,0,1,1531
1,0,12,0,0,0,0,0,0,1,1553
1,0,12,0,0,0,0,0,0,1,1531
1,0,12,0,0,0,0,0,0,1,1574
1,0,12,0,0,0,0,0,0,1,1547
1,0,12,0,0,0,0,0,0,1,1546
1,0,12,0,0,0,0,0,0,1,1580
1,0,12,0,0,0,0,0,0,1,1477
1,0,12,0,0,0,0,0,0,1,1508
1,0,12,0,0,0,0,0,0,1,1493
1,0,12,0,0,0,0,0,0,1,1539
1,0,12,0,0,0,0,0,0,1,1507
1,0,12,0,0,0,0,0,0,1,1517
1,0,12,0,0,0,0,0,0,1,1530
1,0,12,0,0,0,0,0,0,1,1501
1,0,12,0,0,0,0,0,0,1,1570
1,0,12,0,0,0,0,0,0,1,1480
1,0,12,0,0,0,0,0,0,1,1483
1,0,12,0,0,0,0,0,0,1,1510
1,0,12,0,0,0,0,0,0,1,1500
1,0,12,0,0,0,0,0,0,1,1420
1,0,12,0,0,0,0,0,0,1,1457
1,0,12,0,0,0,0,0,0,1,1473
1,0,12,0,0,0,0,0,0,1,1451
1,0,12,0,0,0,0,0,0,1,1444
1,0,12,0,0,0,0,0,0,1,1440
1,0,12,0,0,0,0,0,0,1,1463
1,0,12,0,0,0,0,0,0,1,1440
1,0,12,0,0,0,0,0,0,1,1449
1,0,12,0,0,0,0,0,0,1,1444
1,0,12,0,0,0,0,0,0,1,1440
1,0,12,0,0,0,0,0,0,1,1460
1,0,12,0,0,0,0,0,0,1,1443
1,0,12,0,0,0,0,0,0,1,1440
1,0,12,0,0,0,0,0,0,1,1460
1,0,12,0,0,0,0,0,0,1,1440
1,0,12,0,0,0,0,0,0,1,1450
1,0,12,0,0,0,0,0,0,1,1461
1,0,12,0,0,0,0,0,0,1,1440
1,0,12,0,0,0,0,0,0,1,1450
1,0,12,0,0,0,0,0,0,1,1460
1,0,12,0,0,0,0,0,0,1,1540
1,0,12,0,0,0,0,0,0,1,1443
1,0,12,0,0,0,0,0,0,1,1473
1,0,12,0,0,0,0,0,0,1,1470
1,0,12,0,0,0,0,0,0,1,1501
1,0,12,0,0,0,0,0,0,1,1526
1,0,12,0,0,0,0,0,0,1,1560
1,0,12,0,0,0,0,0,0,1,1524
1,1,12,488,488,0,0,0,0,2,8664
1,1,12,488,488,0,0,0,0,2,6354
1,1,12,488,488,0,0,0,0,2,4841
1,1,12,488,488,0,0,0,0,2,3230
1,1,12,488,488,0,0,0,0,2,3097
1,1,12,488,488,0,0,0,0,2,3081
1,1,12,488,488,0,0,0,0,2,3200
1,1,12,488,488,0,0,0,0,2,3117
1,1,12,488,488,0,0,0,0,2,3070
1,1,12,488,488,0,0,0,0,2,2960
1,1,12,488,488,0,0,0,0,2,2973
1,1,12,488,488,0,0,0,0,2,2930
1,1,12,488,488,0,0,0,0,2,2953
1,1,12,488,488,0,0,0,0,2,3064
1,1,12,488,488,0,0,0,0,2,2970
1,1,12,488,488,0,0,0,0,2,3081
1,1,12,488,488,0,0,0,0,2,2947
1,1,12,488,488,0,0,0,0,2,2800
1,1,12,488,488,0,0,0,0,2,2933
1,1,12,488,488,0,0,0,0,2,2903
1,1,12,488,488,0,0,0,0,2,2923
1,1,12,488,488,0,0,0,0,2,2960
1,1,12,488,488,0,0,0,0,2,2786
1,1,12,488,488,0,0,0,0,2,2861
1,1,12,488,488,0,0,0,0,2,2853
1,1,12,488,488,0,0,0,0,2,2892
1,1,12,488,488,0,0,0,0,2,2943
1,1,12,488,488,0,0,0,0,2,2897
1,1,12,488,488,0,0,0,0,2,2950
1,1,12,488,488,0,0,0,0,2,3013
1,1,12,488,488,0,0,0,0,2,3100
1,1,12,488,488,0,0,0,0,2,2993
1,1,12,488,488,0,0,0,0,2,2961
1,1,12,488,488,0,0,0,0,2,2916
1,1,12,488,488,0,0,0,0,2,2959
1,1,12,488,488,0,0,0,0,2,2977
1,1,12,488,488,0,0,0,0,2,3013
1,1,12,488,488,0,0,0,0,2,3257
1,1,12,488,488,0,0,0,0,2,2927
1,1,12,488,488,0,0,0,0,2,2970
1,1,12,488,488,0,0,0,0,2,3054
1,1,12,488,488,0,0,0,0,2,2813
1,1,12,488,488,0,0,0,0,2,3009
1,1,12,488,488,0,0,0,0,2,3337
1,1,12,488,488,0,0,0,0,2,3063
1,1,12,488,488,0,0,0,0,2,3030
1,1,12,488,488,0,0,0,0,2,3124
1,1,12,488,488,0,0,0,0,2,3197
1,1,12,488,488,0,0,0,0,2,2873
1,1,12,488,488,0,0,0,0,2,2947
1,1,12,488,488,0,0,0,0,2,3134
1,1,12,488,488,0,0,0,0,2,3033
1,1,12,488,488,0,0,0,0,2,3003
1,1,12,488,488,0,0,0,0,2,3210
1,1,12,488,488,0,0,0,0,2,2964
1,1,12,488,488,0,0,0,0,2,3014
1,1,12,488,488,0,0,0,0,2,2956
1,1,12,488,488,0,0,0,0,2,2976
1,1,12,488,488,0,0,0,0,2,2990
1,1,12,488,488,0,0,0,0,2,3134
1,1,12,488,488,0,0,0,0,2,3093
1,1,12,488,488,0,0,0,0,2,3244
1,1,12,488,488,0,0,0,0,2,3337
1,1,12,488,488,0,0,0,0,2,3260
1,1,12,488,488,0,0,0,0,2,3522
1,1,12,488,488,0,0,0,0,2,3287
1,1,12,488,488,0,0,0,0,2,3251
1,1,12,488,488,0,0,0,0,2,3080
1,1,12,488,488,0,0,0,0,2,3300
1,1,12,488,488,0,0,0,0,2,3030
1,1,12,488,488,0,0,0,0,2,3231
1,1,12,488,488,0,0,0,0,2,3177
1,1,12,488,488,0,0,0,0,2,2912
1,1,12,488,488,0,0,0,0,2,2977
1,1,12,488,488,0,0,0,0,2,3154
1,1,12,488,488,0,0,0,0,2,3020
1,1,12,488,488,0,0,0,0,2,3084
1,1,12,488,488,0,0,0,0,2,2883
1,1,12,488,488,0,0,0,0,2,3054
1,1,12,488,488,0,0,0,0,2,3365
1,1,12,488,488,0,0,0,0,2,3260
1,1,12,488,488,0,0,0,0,2,3294
1,1,12,488,488,0,0,0,0,2,3051
1,1,12,488,488,0,0,0,0,2,3080
1,1,12,488,488,0,0,0,0,2,3009
1,1,12,488,488,0,0,0,0,2,3046
1,1,12,488,488,0,0,0,0,2,3007
1,1,12,488,488,0,0,0,0,2,2983
1,1,12,488,488,0,0,0,0,2,3087
1,1,12,488,488,0,0,0,0,2,3047
1,1,12,488,488,0,0,0,0,2,2914
1,1,12,488,488,0,0,0,0,2,3090
1,1,12,488,488,0,0,0,0,2,3060
1,1,12,488,488,0,0,0,0,2,2967
1,1,12,488,488,0,0,0,0,2,2970
1,1,12,488,488,0,0,0,0,2,2966
1,1,12,488,488,0,0,0,0,2,2954
1,1,12,488,488,0,0,0,0,2,3101
1,1,12,488,488,0,0,0,0,2,3113
1,1,12,488,488,0,0,0,0,2,3131
3,0,12,719,719,0,2,0,0,3,40722
3,0,12,719,719,0,2,0,0,3,19665
3,0,12,719,719,0,2,0,0,3,15953
3,0,12,719,719,0,2,0,0,3,15659
3,0,12,719,719,0,2,0,0,3,15549
3,0,12,719,719,0,2,0,0,3,15585
3,0,12,719,719,0,2,0,0,3,15408
3,0,12,719,719,0,2,0,0,3,15505
3,0,12,719,719,0,2,0,0,3,15419
3,0,12,719,719,0,2,0,0,3,15421
3,0,12,719,719,0,2,0,0,3,15382
3,0,12,719,719,0,2,0,0,3,15518
3,0,12,719,719,0,2,0,0,3,15481
3,0,12,719,719,0,2,0,0,3,15445
3,0,12,719,719,0,2,0,0,3,15435
3,0,12,719,719,0,2,0,0,3,15492
3,0,12,719,719,0,2,0,0,3,15441
3,0,12,719,719,0,2,0,0,3,15431
3,0,12,719,719,0,2,0,0,3,15462
3,0,12,719,719,0,2,0,0,3,15479
3,0,12,719,719,0,2,0,0,3,15374
3,0,12,719,719,0,2,0,0,3,15418
3,0,12,719,719,0,2,0,0,3,15441
3,0,12,719,719,0,2,0,0,3,15489
3,0,12,719,719,0,2,0,0,3,15452
3,0,12,719,719,0,2,0,0,3,15445
3,0,12,719,719,0,2,0,0,3,15398
3,0,12,719,719,0,2,0,0,3,15458
3,0,12,719,719,0,2,0,0,3,15462
3,0,12,719,719,0,2,0,0,3,15405
3,0,12,719,719,0,2,0,0,3,15442
3,0,12,719,719,0,2,0,0,3,15472
3,0,12,719,719,0,2,0,0,3,15445
3,0,12,719,719,0,2,0,0,3,15429
3,0,12,719,719,0,2,0,0,3,15459
3,0,12,719,719,0,2,0,0,3,15461
3,0,12,719,719,0,2,0,0,3,15432
3,0,12,719,719,0,2,0,0,3,15432
3,0,12,719,719,0,2,0,0,3,15425
3,0,12,719,719,0,2,0,0,3,15506
3,0,12,719,719,0,2,0,0,3,15465
3,0,12,719,719,0,2,0,0,3,23631
3,0,12,719,719,0,2,0,0,3,24502
3,0,12,719,719,0,2,0,0,3,21983
3,0,12,719,719,0,2,0,0,3,26214
3,0,12,719,719,0,2,0,0,3,24850
3,0,12,719,719,0,2,0,0,3,24800
3,0,12,719,719,0,2,0,0,3,25879
3,0,12,719,719,0,2,0,0,3,24926
3,0,12,719,719,0,2,0,0,3,25207
3,0,12,719,719,0,2,0,0,3,25000
3,0,12,719,719,0,2,0,0,3,22211
3,0,12,719,719,0,2,0,0,3,21315
3,0,12,719,719,0,2,0,0,3,22080
3,0,12,719,719,0,2,0,0,3,22451
3,0,12,719,719,0,2,0,0,3,24887
3,0,12,719,719,0,2,0,0,3,23263
3,0,12,719,719,0,2,0,0,3,25217
3,0,12,719,719,0,2,0,0,3,24676
3,0,12,719,719,0,2,0,0,3,24996
3,0,12,719,719,0,2,0,0,3,25674
3,0,12,719,719,0,2,0,0,3,24020
3,0,12,719,719,0,2,0,0,3,23704
3,0,12,719,719,0,2,0,0,3,23170
3,0,12,719,719,0,2,0,0,3,23220
3,0,12,719,719,0,2,0,0,3,23272
3,0,12,719,719,0,2,0,0,3,24378
3,0,12,719,719,0,2,0,0,3,25325
3,0,12,719,719,0,2,0,0,3,25454
3,0,12,719,719,0,2,0,0,3,25114
3,0,12,719,719,0,2,0,0,3,24535
3,0,12,719,719,0,2,0,0,3,24542
3,0,12,719,719,0,2,0,0,3,23393
3,0,12,719,719,0,2,0,0,3,24509
3,0,12,719,719,0,2,0,0,3,24786
3,0,12,719,719,0,2,0,0,3,24653
3,0,12,719,719,0,2,0,0,3,25407
3,0,12,719,719,0,2,0,0,3,23357
3,0,12,719,719,0,2,0,0,3,22298
3,0,12,719,719,0,2,0,0,3,22417
3,0,12,719,719,0,2,0,0,3,21228
3,0,12,719,719,0,2,0,0,3,22180
3,0,12,719,719,0,2,0,0,3,22351
3,0,12,719,719,0,2,0,0,3,22037
3,0,12,719,719,0,2,0,0,3,21706
3,0,12,719,719,0,2,0,0,3,22381
3,0,12,719,719,0,2,0,0,3,23751
3,0,12,719,719,0,2,0,0,3,22764
3,0,12,719,719,0,2,0,0,3,23928
3,0,12,719,719,0,2,0,0,3,23494
3,0,12,719,719,0,2,0,0,3,23207
3,0,12,719,719,0,2,0,0,3,22999
3,0,12,719,719,0,2,0,0,3,24786
3,0,12,719,719,0,2,0,0,3,22882
3,0,12,719,719,0,2,0,0,3,23196
3,0,12,719,719,0,2,0,0,3,23700
3,0,12,719,719,0,2,0,0,3,24679
3,0,12,719,719,0,2,0,0,3,24443
3,0,12,719,719,0,2,0,0,3,24231
3,0,12,719,719,0,2,0,0,3,23076
3,1,12,1393,1330,1,0,0,0,4,23697
3,1,12,1393,1330,1,0,0,0,4,20155
3,1,12,1393,1330,1,0,0,0,4,17737
3,1,12,1393,1330,1,0,0,0,4,18755
3,1,12,1393,1330,1,0,0,0,4,19687
3,1,12,1393,1330,1,0,0,0,4,18422
3,1,12,1393,1330,1,0,0,0,4,18294
3,1,12,1393,1330,1,0,0,0,4,18873
3,1,12,1393,1330,1,0,0,0,4,16801
3,1,12,1393,1330,1,0,0,0,4,17289
3,1,12,1393,1330,1,0,0,0,4,17126
3,1,12,1393,1330,1,0,0,0,4,17379
3,1,12,1393,1330,1,0,0,0,4,17009
3,1,12,1393,1330,1,0,0,0,4,18171
3,1,12,1393,1330,1,0,0,0,4,17903
3,1,12,1393,1330,1,0,0,0,4,20774
3,1,12,1393,1330,1,0,0,0,4,11350
3,1,12,1393,1330,1,0,0,0,4,10892
3,1,12,1393,1330,1,0,0,0,4,10464
3,1,12,1393,1330,1,0,0,0,4,10443
3,1,12,1393,1330,1,0,0,0,4,20090
3,1,12,1393,1330,1,0,0,0,4,4367
3,1,12,1393,1330,1,0,0,0,4,4402
3,1,12,1393,1330,1,0,0,0,4,4256
3,1,12,1393,1330,1,0,0,0,4,4338
3,1,12,1393,1330,1,0,0,0,4,4256
3,1,12,1393,1330,1,0,0,0,4,4333
3,1,12,1393,1330,1,0,0,0,4,4349
3,1,12,1393,1330,1,0,0,0,4,4290
3,1,12,1393,1330,1,0,0,0,4,6543
3,1,12,1393,1330,1,0,0,0,4,6473
3,1,12,1393,1330,1,0,0,0,4,6941
3,1,12,1393,1330,1,0,0,0,4,4683
3,1,12,1393,1330,1,0,0,0,4,4474
3,1,12,1393,1330,1,0,0,0,4,4300
3,1,12,1393,1330,1,0,0,0,4,4364
3,1,12,1393,1330,1,0,0,0,4,11135
3,1,12,1393,1330,1,0,0,0,4,11262
3,1,12,1393,1330,1,0,0,0,4,10704
3,1,12,1393,1330,1,0,0,0,4,10497
3,1,12,1393,1330,1,0,0,0,4,10471
3,1,12,1393,1330,1,0,0,0,4,11035
3,1,12,1393,1330,1,0,0,0,4,10838
3,1,12,1393,1330,1,0,0,0,4,11382
3,1,12,1393,1330,1,0,0,0,4,15042
3,1,12,1393,1330,1,0,0,0,4,4348
3,1,12,1393,1330,1,0,0,0,4,4152
3,1,12,1393,1330,1,0,0,0,4,4220
3,1,12,1393,1330,1,0,0,0,4,4153
3,1,12,1393,1330,1,0,0,0,4,4095
3,1,12,1393,1330,1,0,0,0,4,4162
3,1,12,1393,1330,1,0,0,0,4,4279
3,1,12,1393,1330,1,0,0,0,4,4089
3,1,12,1393,1330,1,0,0,0,4,4134
3,1,12,1393,1330,1,0,0,0,4,4184
3,1,12,1393,1330,1,0,0,0,4,4444
3,1,12,1393,1330,1,0,0,0,4,4654
3,1,12,1393,1330,1,0,0,0,4,4232
3,1,12,1393,1330,1,0,0,0,4,4420
3,1,12,1393,1330,1,0,0,0,4,4177
3,1,12,1393,1330,1,0,0,0,4,5147
3,1,12,1393,1330,1,0,0,0,4,6744
3,1,12,1393,1330,1,0,0,0,4,7058
3,1,12,1393,1330,1,0,0,0,4,4804
3,1,12,1393,1330,1,0,0,0,4,4312
3,1,12,1393,1330,1,0,0,0,4,4686
3,1,12,1393,1330,1,0,0,0,4,4333
3,1,12,1393,1330,1,0,0,0,4,4248
3,1,12,1393,1330,1,0,0,0,4,4220
3,1,12,1393,1330,1,0,0,0,4,4422
3,1,12,1393,1330,1,0,0,0,4,4331
3,1,12,1393,1330,1,0,0,0,4,4422
3,1,12,1393,1330,1,0,0,0,4,4165
3,1,12,1393,1330,1,0,0,0,4,4146
3,1,12,1393,1330,1,0,0,0,4,4245
3,1,12,1393,1330,1,0,0,0,4,4363
3,1,12,1393,1330,1,0,0,0,4,4271
3,1,12,1393,1330,1,0,0,0,4,4301
3,1,12,1393,1330,1,0,0,0,4,4367
3,1,12,1393,1330,1,0,0,0,4,4827
3,1,12,1393,1330,1,0,0,0,4,4270
3,1,12,1393,1330,1,0,0,0,4,4137
3,1,12,1393,1330,1,0,0,0,4,4166
3,1,12,1393,1330,1,0,0,0,4,4267
3,1,12,1393,1330,1,0,0,0,4,4148
3,1,12,1393,1330,1,0,0,0,4,4094
3,1,12,1393,1330,1,0,0,0,4,4191
3,1,12,1393,1330,1,0,0,0,4,4152
3,1,12,1393,1330,1,0,0,0,4,4304
3,1,12,1393,1330,1,0,0,0,4,4252
3,1,12,1393,1330,1,0,0,0,4,4224
3,1,12,1393,1330,1,0,0,0,4,4185
3,1,12,1393,1330,1,0,0,0,4,4255
3,1,12,1393,1330,1,0,0,0,4,4167
3,1,12,1393,1330,1,0,0,0,4,4241
3,1,12,1393,1330,1,0,0,0,4,4310
3,1,12,1393,1330,1,0,0,0,4,4555
3,1,12,1393,1330,1,0,0,0,4,4355
3,1,12,1393,1330,1,0,0,0,4,4189
3,1,12,1393,1330,1,0,0,0,4,4103
5,0,12,1539,1539,0,0,0,0,5,11366
5,0,12,1539,1539,0,0,0,0,5,7102
5,0,12,1539,1539,0,0,0,0,5,6467
5,0,12,1539,1539,0,0,0,0,5,6246
5,0,12,1539,1539,0,0,0,0,5,6055
5,0,12,1539,1539,0,0,0,0,5,6163
5,0,12,1539,1539,0,0,0,0,5,5971
5,0,12,1539,1539,0,0,0,0,5,6019
5,0,12,1539,1539,0,0,0,0,5,6030
5,0,12,1539,1539,0,0,0,0,5,5917
5,0,12,1539,1539,0,0,0,0,5,6093
5,0,12,1539,1539,0,0,0,0,5,6237
5,0,12,1539,1539,0,0,0,0,5,5983
5,0,12,1539,1539,0,0,0,0,5,5935
5,0,12,1539,1539,0,0,0,0,5,5899
5,0,12,1539,1539,0,0,0,0,5,6040
5,0,12,1539,1539,0,0,0,0,5,5974
5,0,12,1539,1539,0,0,0,0,5,5964
5,0,12,1539,1539,0,0,0,0,5,5873
5,0,12,1539,1539,0,0,0,0,5,6211
5,0,12,1539,1539,0,0,0,0,5,5961
5,0,12,1539,1539,0,0,0,0,5,5895
5,0,12,1539,1539,0,0,0,0,5,5985
5,0,12,1539,1539,0,0,0,0,5,6075
5,0,12,1539,1539,0,0,0,0,5,6029
5,0,12,1539,1539,0,0,0,0,5,5925
5,0,12,1539,1539,0,0,0,0,5,5955
5,0,12,1539,1539,0,0,0,0,5,6029
5,0,12,1539,1539,0,0,0,0,5,6103
5,0,12,1539,1539,0,0,0,0,5,5909
5,0,12,1539,1539,0,0,0,0,5,6268
5,0,12,1539,1539,0,0,0,0,5,5975
5,0,12,1539,1539,0,0,0,0,5,6350
5,0,12,1539,1539,0,0,0,0,5,5825
5,0,12,1539,1539,0,0,0,0,5,5809
5,0,12,1539,1539,0,0,0,0,5,5920
5,0,12,1539,1539,0,0,0,0,5,5872
5,0,12,1539,1539,0,0,0,0,5,5841
5,0,12,1539,1539,0,0,0,0,5,5931
5,0,12,1539,1539,0,0,0,0,5,5896
5,0,12,1539,1539,0,0,0,0,5,5859
5,0,12,1539,1539,0,0,0,0,5,8644
5,0,12,1539,1539,0,0,0,0,5,8683
5,0,12,1539,1539,0,0,0,0,5,8076
5,0,12,1539,1539,0,0,0,0,5,6223
5,0,12,1539,1539,0,0,0,0,5,6026
5,0,12,1539,1539,0,0,0,0,5,6052
5,0,12,1539,1539,0,0,0,0,5,14963
5,0,12,1539,1539,0,0,0,0,5,8828
5,0,12,1539,1539,0,0,0,0,5,6389
5,0,12,1539,1539,0,0,0,0,5,5967
5,0,12,1539,1539,0,0,0,0,5,5956
5,0,12,1539,1539,0,0,0,0,5,5880
5,0,12,1539,1539,0,0,0,0,5,5901
5,0,12,1539,1539,0,0,0,0,5,5911
5,0,12,1539,1539,0,0,0,0,5,5838
5,0,12,1539,1539,0,0,0,0,5,5993
5,0,12,1539,1539,0,0,0,0,5,5949
5,0,12,1539,1539,0,0,0,0,5,6009
5,0,12,1539,1539,0,0,0,0,5,6154
5,0,12,1539,1539,0,0,0,0,5,5948
5,0,12,1539,1539,0,0,0,0,5,5843
5,0,12,1539,1539,0,0,0,0,5,5992
5,0,12,1539,1539,0,0,0,0,5,5940
5,0,12,1539,1539,0,0,0,0,5,5936
5,0,12,1539,1539,0,0,0,0,5,6053
5,0,12,1539,1539,0,0,0,0,5,5960
5,0,12,1539,1539,0,0,0,0,5,5879
5,0,12,1539,1539,0,0,0,0,5,5963
5,0,12,1539,1539,0,0,0,0,5,5921
5,0,12,1539,1539,0,0,0,0,5,5917
5,0,12,1539,1539,0,0,0,0,5,5960
5,0,12,1539,1539,0,0,0,0,5,5837
5,0,12,1539,1539,0,0,0,0,5,5938
5,0,12,1539,1539,0,0,0,0,5,6197
5,0,12,1539,1539,0,0,0,0,5,6019
5,0,12,1539,1539,0,0,0,0,5,5906
5,0,12,1539,1539,0,0,0,0,5,5975
5,0,12,1539,1539,0,0,0,0,5,5863
5,0,12,1539,1539,0,0,0,0,5,5901
5,0,12,1539,1539,0,0,0,0,5,5847
5,0,12,1539,1539,0,0,0,0,5,5905
5,0,12,1539,1539,0,0,0,0,5,5798
5,0,12,1539,1539,0,0,0,0,5,6068
5,0,12,1539,1539,0,0,0,0,5,5966
5,0,12,1539,1539,0,0,0,0,5,5888
5,0,12,1539,1539,0,0,0,0,5,6020
5,0,12,1539,1539,0,0,0,0,5,6172
5,0,12,1539,1539,0,0,0,0,5,6142
5,0,12,1539,1539,0,0,0,0,5,5866
5,0,12,1539,1539,0,0,0,0,5,5846
5,0,12,1539,1539,0,0,0,0,5,5953
5,0,12,1539,1539,0,0,0,0,5,5942
5,0,12,1539,1539,0,0,0,0,5,5855
5,0,12,1539,1539,0,0,0,0,5,5838
5,0,12,1539,1539,0,0,0,0,5,5866
5,0,12,1539,1539,0,0,0,0,5,5889
5,0,12,1539,1539,0,0,0,0,5,5895
5,0,12,1539,1539,0,0,0,0,5,5894
5,0,12,1539,1539,0,0,0,0,5,5883
1,5,12,924,705,1,0,0,0,3,5600
1,5,12,924,705,1,0,0,0,3,5241
1,5,12,924,705,1,0,0,0,3,5231
1,5,12,924,705,1,0,0,0,3,4125
1,5,12,924,705,1,0,0,0,3,2740
1,5,12,924,705,1,0,0,0,3,2580
1,5,12,924,705,1,0,0,0,3,2577
1,5,12,924,705,1,0,0,0,3,2550
1,5,12,924,705,1,0,0,0,3,2544
1,5,12,924,705,1,0,0,0,3,2834
1,5,12,924,705,1,0,0,0,3,2751
1,5,12,924,705,1,0,0,0,3,2660
1,5,12,924,705,1,0,0,0,3,2567
1,5,12,924,705,1,0,0,0,3,2587
1,5,12,924,705,1,0,0,0,3,2481
1,5,12,924,705,1,0,0,0,3,2574
1,5,12,924,705,1,0,0,0,3,2595
1,5,12,924,705,1,0,0,0,3,2657
1,5,12,924,705,1,0,0,0,3,2538
1,5,12,924,705,1,0,0,0,3,2526
1,5,12,924,705,1,0,0,0,3,2533
1,5,12,924,705,1,0,0,0,3,2538
1,5,12,924,705,1,0,0,0,3,2545
1,5,12,924,705,1,0,0,0,3,2547
1,5,12,924,705,1,0,0,0,3,2534
1,5,12,924,705,1,0,0,0,3,2529
1,5,12,924,705,1,0,0,0,3,2596
1,5,12,924,705,1,0,0,0,3,2504
1,5,12,924,705,1,0,0,0,3,2546
1,5,12,924,705,1,0,0,0,3,2875
1,5,12,924,705,1,0,0,0,3,2719
1,5,12,924,705,1,0,0,0,3,2688
1,5,12,924,705,1,0,0,0,3,2522
1,5,12,924,705,1,0,0,0,3,2535
1,5,12,924,705,1,0,0,0,3,2579
1,5,12,924,705,1,0,0,0,3,2911
1,5,12,924,705,1,0,0,0,3,2477
1,5,12,924,705,1,0,0,0,3,2489
1,5,12,924,705,1,0,0,0,3,2473
1,5,12,924,705,1,0,0,0,3,2512
1,5,12,924,705,1,0,0,0,3,2572
1,5,12,924,705,1,0,0,0,3,2502
1,5,12,924,705,1,0,0,0,3,2744
1,5,12,924,705,1,0,0,0,3,2570
1,5,12,924,705,1,0,0,0,3,2562
1,5,12,924,705,1,0,0,0,3,2538
1,5,12,924,705,1,0,0,0,3,2762
1,5,12,924,705,1,0,0,0,3,2648
1,5,12,924,705,1,0,0,0,3,2490
1,5,12,924,705,1,0,0,0,3,2453
1,5,12,924,705,1,0,0,0,3,2464
1,5,12,924,705,1,0,0,0,3,2493
1,5,12,924,705,1,0,0,0,3,2519
1,5,12,924,705,1,0,0,0,3,2625
1,5,12,924,705,1,0,0,0,3,2419
1,5,12,924,705,1,0,0,0,3,2495
1,5,12,924,705,1,0,0,0,3,2485
1,5,12,924,705,1,0,0,0,3,2518
1,5,12,924,705,1,0,0,0,3,3145
1,5,12,924,705,1,0,0,0,3,2477
1,5,12,924,705,1,0,0,0,3,2546
1,5,12,924,705,1,0,0,0,3,2443
1,5,12,924,705,1,0,0,0,3,2458
1,5,12,924,705,1,0,0,0,3,2484
1,5,12,924,705,1,0,0,0,3,2506
1,5,12,924,705,1,0,0,0,3,2440
1,5,12,924,705,1,0,0,0,3,2486
1,5,12,924,705,1,0,0,0,3,2901
1,5,12,924,705,1,0,0,0,3,2468
1,5,12,924,705,1,0,0,0,3,2634
1,5,12,924,705,1,0,0,0,3,2454
1,5,12,924,705,1,0,0,0,3,2502
1,5,12,924,705,1,0,0,0,3,2448
1,5,12,924,705,1,0,0,0,3,2506
1,5,12,924,705,1,0,0,0,3,2522
1,5,12,924,705,1,0,0,0,3,2461
1,5,12,924,705,1,0,0,0,3,2626
1,5,12,924,705,1,0,0,0,3,2793
1,5,12,924,705,1,0,0,0,3,2618
1,5,12,924,705,1,0,0,0,3,2817
1,5,12,924,705,1,0,0,0,3,2533
1,5,12,924,705,1,0,0,0,3,2495
1,5,12,924,705,1,0,0,0,3,2519
1,5,12,924,705,1,0,0,0,3,2505
1,5,12,924,705,1,0,0,0,3,2607
1,5,12,924,705,1,0,0,0,3,2517
1,5,12,924,705,1,0,0,0,3,2600
1,5,12,924,705,1,0,0,0,3,2608
1,5,12,924,705,1,0,0,0,3,2445
1,5,12,924,705,1,0,0,0,3,2488
1,5,12,924,705,1,0,0,0,3,2466
1,5,12,924,705,1,0,0,0,3,2402
1,5,12,924,705,1,0,0,0,3,2416
1,5,12,924,705,1,0,0,0,3,2485
1,5,12,924,705,1,0,0,0,3,2505
1,5,12,924,705,1,0,0,0,3,2477
1,5,12,924,705,1,0,0,0,3,2398
1,5,12,924,705,1,0,0,0,3,2446
1,5,12,924,705,1,0,0,0,3,2612
1,5,12,924,705,1,0,0,0,3,2468
4,3,12,1179,1179,0,0,0,0,5,11244
4,3,12,1179,1179,0,0,0,0,5,6815
4,3,12,1179,1179,0,0,0,0,5,6193
4,3,12,1179,1179,0,0,0,0,5,6235
4,3,12,1179,1179,0,0,0,0,5,6164
4,3,12,1179,1179,0,0,0,0,5,6190
4,3,12,1179,1179,0,0,0,0,5,5845
4,3,12,1179,1179,0,0,0,0,5,5873
4,3,12,1179,1179,0,0,0,0,5,6123
4,3,12,1179,1179,0,0,0,0,5,5991
4,3,12,1179,1179,0,0,0,0,5,6037
4,3,12,1179,1179,0,0,0,0,5,5859
4,3,12,1179,1179,0,0,0,0,5,6029
4,3,12,1179,1179,0,0,0,0,5,6012
4,3,12,1179,1179,0,0,0,0,5,6062
4,3,12,1179,1179,0,0,0,0,5,5980
4,3,12,1179,1179,0,0,0,0,5,5882
4,3,12,1179,1179,0,0,0,0,5,5929
4,3,12,1179,1179,0,0,0,0,5,6173
4,3,12,1179,1179,0,0,0,0,5,5882
4,3,12,1179,1179,0,0,0,0,5,5914
4,3,12,1179,1179,0,0,0,0,5,6095
4,3,12,1179,1179,0,0,0,0,5,6000
4,3,12,1179,1179,0,0,0,0,5,6088
4,3,12,1179,1179,0,0,0,0,5,6177
4,3,12,1179,1179,0,0,0,0,5,6372
4,3,12,1179,1179,0,0,0,0,5,5916
4,3,12,1179,1179,0,0,0,0,5,5962
4,3,12,1179,1179,0,0,0,0,5,5836
4,3,12,1179,1179,0,0,0,0,5,6165
4,3,12,1179,1179,0,0,0,0,5,6235
4,3,12,1179,1179,0,0,0,0,5,5903
4,3,12,1179,1179,0,0,0,0,5,5868
4,3,12,1179,1179,0,0,0,0,5,5910
4,3,12,1179,1179,0,0,0,0,5,5973
4,3,12,1179,1179,0,0,0,0,5,6080
4,3,12,1179,1179,0,0,0,0,5,5823
4,3,12,1179,1179,0,0,0,0,5,5895
4,3,12,1179,1179,0,0,0,0,5,5848
4,3,12,1179,1179,0,0,0,0,5,5979
4,3,12,1179,1179,0,0,0,0,5,6154
4,3,12,1179,1179,0,0,0,0,5,5904
4,3,12,1179,1179,0,0,0,0,5,6034
4,3,12,1179,1179,0,0,0,0,5,5835
4,3,12,1179,1179,0,0,0,0,5,5906
4,3,12,1179,1179,0,0,0,0,5,6013
4,3,12,1179,1179,0,0,0,0,5,6039
4,3,12,1179,1179,0,0,0,0,5,5926
4,3,12,1179,1179,0,0,0,0,5,5909
4,3,12,1179,1179,0,0,0,0,5,5918
4,3,12,1179,1179,0,0,0,0,5,5868
4,3,12,1179,1179,0,0,0,0,5,6211
4,3,12,1179,1179,0,0,0,0,5,5915
4,3,12,1179,1179,0,0,0,0,5,5849
4,3,12,1179,1179,0,0,0,0,5,5893
4,3,12,1179,1179,0,0,0,0,5,5831
4,3,12,1179,1179,0,0,0,0,5,5866
4,3,12,1179,1179,0,0,0,0,5,6342
4,3,12,1179,1179,0,0,0,0,5,6088
4,3,12,1179,1179,0,0,0,0,5,5831
4,3,12,1179,1179,0,0,0,0,5,5916
4,3,12,1179,1179,0,0,0,0,5,5868
4,3,12,1179,1179,0,0,0,0,5,6198
4,3,12,1179,1179,0,0,0,0,5,5888
4,3,12,1179,1179,0,0,0,0,5,6047
4,3,12,1179,1179,0,0,0,0,5,5887
4,3,12,1179,1179,0,0,0,0,5,5852
4,3,12,1179,1179,0,0,0,0,5,6119
4,3,12,1179,1179,0,0,0,0,5,5990
4,3,12,1179,1179,0,0,0,0,5,5915
4,3,12,1179,1179,0,0,0,0,5,5865
4,3,12,1179,1179,0,0,0,0,5,5884
4,3,12,1179,1179,0,0,0,0,5,5918
4,3,12,1179,1179,0,0,0,0,5,5897
4,3,12,1179,1179,0,0,0,0,5,5818
4,3,12,1179,1179,0,0,0,0,5,5850
4,3,12,1179,1179,0,0,0,0,5,5871
4,3,12,1179,1179,0,0,0,0,5,5907
4,3,12,1179,1179,0,0,0,0,5,5802
4,3,12,1179,1179,0,0,0,0,5,5888
4,3,12,1179,1179,0,0,0,0,5,5863
4,3,12,1179,1179,0,0,0,0,5,5902
4,3,12,1179,1179,0,0,0,0,5,5894
4,3,12,1179,1179,0,0,0,0,5,6000
4,3,12,1179,1179,0,0,0,0,5,6019
4,3,12,1179,1179,0,0,0,0,5,5878
4,3,12,1179,1179,0,0,0,0,5,5990
4,3,12,1179,1179,0,0,0,0,5,6012
4,3,12,1179,1179,0,0,0,0,5,5871
4,3,12,1179,1179,0,0,0,0,5,5835
4,3,12,1179,1179,0,0,0,0,5,5886
4,3,12,1179,1179,0,0,0,0,5,5839
4,3,12,1179,1179,0,0,0,0,5,5925
4,3,12,1179,1179,0,0,0,0,5,5957
4,3,12,1179,1179,0,0,0,0,5,5891
4,3,12,1179,1179,0,0,0,0,5,5943
4,3,12,1179,1179,0,0,0,0,5,5844
4,3,12,1179,1179,0,0,0,0,5,5892
4,3,12,1179,1179,0,0,0,0,5,5913
4,3,12,1179,1179,0,0,0,0,5,6141
6,2,12,2263,2085,3,0,0,0,7,27874
6,2,12,2263,2085,3,0,0,0,7,23476
6,2,12,2263,2085,3,0,0,0,7,20977
6,2,12,2263,2085,3,0,0,0,7,19770
6,2,12,2263,2085,3,0,0,0,7,19476
6,2,12,2263,2085,3,0,0,0,7,19579
6,2,12,2263,2085,3,0,0,0,7,19548
6,2,12,2263,2085,3,0,0,0,7,19642
6,2,12,2263,2085,3,0,0,0,7,19843
6,2,12,2263,2085,3,0,0,0,7,20045
6,2,12,2263,2085,3,0,0,0,7,19325
6,2,12,2263,2085,3,0,0,0,7,19481
6,2,12,2263,2085,3,0,0,0,7,20074
6,2,12,2263,2085,3,0,0,0,7,19876
6,2,12,2263,2085,3,0,0,0,7,19472
6,2,12,2263,2085,3,0,0,0,7,19713
6,2,12,2263,2085,3,0,0,0,7,19369
6,2,12,2263,2085,3,0,0,0,7,20071
6,2,12,2263,2085,3,0,0,0,7,19453
6,2,12,2263,2085,3,0,0,0,7,19215
6,2,12,2263,2085,3,0,0,0,7,19644
6,2,12,2263,2085,3,0,0,0,7,19222
6,2,12,2263,2085,3,0,0,0,7,19556
6,2,12,2263,2085,3,0,0,0,7,19485
6,2,12,2263,2085,3,0,0,0,7,19968
6,2,12,2263,2085,3,0,0,0,7,20008
6,2,12,2263,2085,3,0,0,0,7,19644
6,2,12,2263,2085,3,0,0,0,7,19530
6,2,12,2263,2085,3,0,0,0,7,19583
6,2,12,2263,2085,3,0,0,0,7,19341
6,2,12,2263,2085,3,0,0,0,7,20671
6,2,12,2263,2085,3,0,0,0,7,20020
6,2,12,2263,2085,3,0,0,0,7,19829
6,2,12,2263,2085,3,0,0,0,7,19963
6,2,12,2263,2085,3,0,0,0,7,19538
6,2,12,2263,2085,3,0,0,0,7,20463
6,2,12,2263,2085,3,0,0,0,7,20086
6,2,12,2263,2085,3,0,0,0,7,20285
6,2,12,2263,2085,3,0,0,0,7,20333
6,2,12,2263,2085,3,0,0,0,7,19827
6,2,12,2263,2085,3,0,0,0,7,19847
6,2,12,2263,2085,3,0,0,0,7,19517
6,2,12,2263,2085,3,0,0,0,7,19489
6,2,12,2263,2085,3,0,0,0,7,19626
6,2,12,2263,2085,3,0,0,0,7,19605
6,2,12,2263,2085,3,0,0,0,7,19363
6,2,12,2263,2085,3,0,0,0,7,19492
6,2,12,2263,2085,3,0,0,0,7,29795
6,2,12,2263,2085,3,0,0,0,7,21436
6,2,12,2263,2085,3,0,0,0,7,40210
6,2,12,2263,2085,3,0,0,0,7,50350
6,2,12,2263,2085,3,0,0,0,7,37395
6,2,12,2263,2085,3,0,0,0,7,36305
6,2,12,2263,2085,3,0,0,0,7,36430
6,2,12,2263,2085,3,0,0,0,7,45268
6,2,12,2263,2085,3,0,0,0,7,36376
6,2,12,2263,2085,3,0,0,0,7,37395
6,2,12,2263,2085,3,0,0,0,7,37044
6,2,12,2263,2085,3,0,0,0,7,36763
6,2,12,2263,2085,3,0,0,0,7,37009
6,2,12,2263,2085,3,0,0,0,7,36686
6,2,12,2263,2085,3,0,0,0,7,36150
6,2,12,2263,2085,3,0,0,0,7,36373
6,2,12,2263,2085,3,0,0,0,7,36693
6,2,12,2263,2085,3,0,0,0,7,36861
6,2,12,2263,2085,3,0,0,0,7,36440
6,2,12,2263,2085,3,0,0,0,7,35932
6,2,12,2263,2085,3,0,0,0,7,36452
6,2,12,2263,2085,3,0,0,0,7,36706
6,2,12,2263,2085,3,0,0,0,7,36010
6,2,12,2263,2085,3,0,0,0,7,36451
6,2,12,2263,2085,3,0,0,0,7,36159
6,2,12,2263,2085,3,0,0,0,7,36010
6,2,12,2263,2085,3,0,0,0,7,36137
6,2,12,2263,2085,3,0,0,0,7,36519
6,2,12,2263,2085,3,0,0,0,7,36148
6,2,12,2263,2085,3,0,0,0,7,36277
6,2,12,2263,2085,3,0,0,0,7,36360
6,2,12,2263,2085,3,0,0,0,7,36002
6,2,12,2263,2085,3,0,0,0,7,36355
6,2,12,2263,2085,3,0,0,0,7,36182
6,2,12,2263,2085,3,0,0,0,7,36125
6,2,12,2263,2085,3,0,0,0,7,36199
6,2,12,2263,2085,3,0,0,0,7,36322
6,2,12,2263,2085,3,0,0,0,7,36503
6,2,12,2263,2085,3,0,0,0,7,36086
6,2,12,2263,2085,3,0,0,0,7,36416
6,2,12,2263,2085,3,0,0,0,7,35997
6,2,12,2263,2085,3,0,0,0,7,36586
6,2,12,2263,2085,3,0,0,0,7,36928
6,2,12,2263,2085,3,0,0,0,7,36425
6,2,12,2263,2085,3,0,0,0,7,35921
6,2,12,2263,2085,3,0,0,0,7,36290
6,2,12,2263,2085,3,0,0,0,7,36278
6,2,12,2263,2085,3,0,0,0,7,36012
6,2,12,2263,2085,3,0,0,0,7,35861
6,2,12,2263,2085,3,0,0,0,7,36267
6,2,12,2263,2085,3,0,0,0,7,36578
6,2,12,2263,2085,3,0,0,0,7,36136
6,2,12,2263,2085,3,0,0,0,7,36089
5,4,12,1511,1511,0,0,0,0,6,26062
5,4,12,1511,1511,0,0,0,0,6,17179
5,4,12,1511,1511,0,0,0,0,6,16337
5,4,12,1511,1511,0,0,0,0,6,15939
5,4,12,1511,1511,0,0,0,0,6,15814
5,4,12,1511,1511,0,0,0,0,6,15920
5,4,12,1511,1511,0,0,0,0,6,16120
5,4,12,1511,1511,0,0,0,0,6,16565
5,4,12,1511,1511,0,0,0,0,6,16074
5,4,12,1511,1511,0,0,0,0,6,16482
5,4,12,1511,1511,0,0,0,0,6,16588
5,4,12,1511,1511,0,0,0,0,6,15876
5,4,12,1511,1511,0,0,0,0,6,16056
5,4,12,1511,1511,0,0,0,0,6,16210
5,4,12,1511,1511,0,0,0,0,6,15824
5,4,12,1511,1511,0,0,0,0,6,15913
5,4,12,1511,1511,0,0,0,0,6,16249
5,4,12,1511,1511,0,0,0,0,6,15948
5,4,12,1511,1511,0,0,0,0,6,16297
5,4,12,1511,1511,0,0,0,0,6,17109
5,4,12,1511,1511,0,0,0,0,6,16062
5,4,12,1511,1511,0,0,0,0,6,16032
5,4,12,1511,1511,0,0,0,0,6,16363
5,4,12,1511,1511,0,0,0,0,6,16114
5,4,12,1511,1511,0,0,0,0,6,15999
5,4,12,1511,1511,0,0,0,0,6,15950
5,4,12,1511,1511,0,0,0,0,6,16027
5,4,12,1511,1511,0,0,0,0,6,15816
5,4,12,1511,1511,0,0,0,0,6,16191
5,4,12,1511,1511,0,0,0,0,6,16125
5,4,12,1511,1511,0,0,0,0,6,16399
5,4,12,1511,1511,0,0,0,0,6,17111
5,4,12,1511,1511,0,0,0,0,6,16219
5,4,12,1511,1511,0,0,0,0,6,15968
5,4,12,1511,1511,0,0,0,0,6,16275
5,4,12,1511,1511,0,0,0,0,6,16038
5,4,12,1511,1511,0,0,0,0,6,16214
5,4,12,1511,1511,0,0,0,0,6,16242
5,4,12,1511,1511,0,0,0,0,6,15986
5,4,12,1511,1511,0,0,0,0,6,16108
5,4,12,1511,1511,0,0,0,0,6,16253
5,4,12,1511,1511,0,0,0,0,6,16128
5,4,12,1511,1511,0,0,0,0,6,15974
5,4,12,1511,1511,0,0,0,0,6,16300
5,4,12,1511,1511,0,0,0,0,6,15968
5,4,12,1511,1511,0,0,0,0,6,15954
5,4,12,1511,1511,0,0,0,0,6,16091
5,4,12,1511,1511,0,0,0,0,6,16148
5,4,12,1511,1511,0,0,0,0,6,15876
5,4,12,1511,1511,0,0,0,0,6,16174
5,4,12,1511,1511,0,0,0,0,6,16179
5,4,12,1511,1511,0,0,0,0,6,16128
5,4,12,1511,1511,0,0,0,0,6,16265
5,4,12,1511,1511,0,0,0,0,6,16009
5,4,12,1511,1511,0,0,0,0,6,16443
5,4,12,1511,1511,0,0,0,0,6,16123
5,4,12,1511,1511,0,0,0,0,6,15906
5,4,12,1511,1511,0,0,0,0,6,16465
5,4,12,1511,1511,0,0,0,0,6,15868
5,4,12,1511,1511,0,0,0,0,6,16132
5,4,12,1511,1511,0,0,0,0,6,16029
5,4,12,1511,1511,0,0,0,0,6,16162
5,4,12,1511,1511,0,0,0,0,6,16062
5,4,12,1511,1511,0,0,0,0,6,16144
5,4,12,1511,1511,0,0,0,0,6,16106
5,4,12,1511,1511,0,0,0,0,6,16220
5,4,12,1511,1511,0,0,0,0,6,16008
5,4,12,1511,1511,0,0,0,0,6,15939
5,4,12,1511,1511,0,0,0,0,6,16048
5,4,12,1511,1511,0,0,0,0,6,16342
5,4,12,1511,1511,0,0,0,0,6,16375
5,4,12,1511,1511,0,0,0,0,6,17169
5,4,12,1511,1511,0,0,0,0,6,16058
5,4,12,1511,1511,0,0,0,0,6,16112
5,4,12,1511,1511,0,0,0,0,6,16259
5,4,12,1511,1511,0,0,0,0,6,23207
5,4,12,1511,1511,0,0,0,0,6,16232
5,4,12,1511,1511,0,0,0,0,6,16195
5,4,12,1511,1511,0,0,0,0,6,16136
5,4,12,1511,1511,0,0,0,0,6,16207
5,4,12,1511,1511,0,0,0,0,6,16121
5,4,12,1511,1511,0,0,0,0,6,16710
5,4,12,1511,1511,0,0,0,0,6,16081
5,4,12,1511,1511,0,0,0,0,6,15991
5,4,12,1511,1511,0,0,0,0,6,16176
5,4,12,1511,1511,0,0,0,0,6,16029
5,4,12,1511,1511,0,0,0,0,6,15981
5,4,12,1511,1511,0,0,0,0,6,15898
5,4,12,1511,1511,0,0,0,0,6,15991
5,4,12,1511,1511,0,0,0,0,6,16362
5,4,12,1511,1511,0,0,0,0,6,15996
5,4,12,1511,1511,0,0,0,0,6,16041
5,4,12,1511,1511,0,0,0,0,6,16330
5,4,12,1511,1511,0,0,0,0,6,16014
5,4,12,1511,1511,0,0,0,0,6,15828
5,4,12,1511,1511,0,0,0,0,6,16224
5,4,12,1511,1511,0,0,0,0,6,16269
5,4,12,1511,1511,0,0,0,0,6,16144
5,4,12,1511,1511,0,0,0,0,6,16199
5,4,12,1511,1511,0,0,0,0,6,15834
10,0,12,2185,2185,0,0,0,0,10,60943
10,0,12,2185,2185,0,0,0,0,10,47113
10,0,12,2185,2185,0,0,0,0,10,46828
10,0,12,2185,2185,0,0,0,0,10,47285
10,0,12,2185,2185,0,0,0,0,10,46599
10,0,12,2185,2185,0,0,0,0,10,47315
10,0,12,2185,2185,0,0,0,0,10,46308
10,0,12,2185,2185,0,0,0,0,10,46423
10,0,12,2185,2185,0,0,0,0,10,46576
10,0,12,2185,2185,0,0,0,0,10,46811
10,0,12,2185,2185,0,0,0,0,10,46392
10,0,12,2185,2185,0,0,0,0,10,46167
10,0,12,2185,2185,0,0,0,0,10,46137
10,0,12,2185,2185,0,0,0,0,10,47160
10,0,12,2185,2185,0,0,0,0,10,46736
10,0,12,2185,2185,0,0,0,0,10,47508
10,0,12,2185,2185,0,0,0,0,10,46365
10,0,12,2185,2185,0,0,0,0,10,46666
10,0,12,2185,2185,0,0,0,0,10,46353
10,0,12,2185,2185,0,0,0,0,10,46532
10,0,12,2185,2185,0,0,0,0,10,46585
10,0,12,2185,2185,0,0,0,0,10,46556
10,0,12,2185,2185,0,0,0,0,10,46575
10,0,12,2185,2185,0,0,0,0,10,46909
10,0,12,2185,2185,0,0,0,0,10,46716
10,0,12,2185,2185,0,0,0,0,10,46947
10,0,12,2185,2185,0,0,0,0,10,48349
10,0,12,2185,2185,0,0,0,0,10,46881
10,0,12,2185,2185,0,0,0,0,10,47294
10,0,12,2185,2185,0,0,0,0,10,46715
10,0,12,2185,2185,0,0,0,0,10,47290
10,0,12,2185,2185,0,0,0,0,10,47578
10,0,12,2185,2185,0,0,0,0,10,47989
10,0,12,2185,2185,0,0,0,0,10,46550
10,0,12,2185,2185,0,0,0,0,10,46794
10,0,12,2185,2185,0,0,0,0,10,47257
10,0,12,2185,2185,0,0,0,0,10,64617
10,0,12,2185,2185,0,0,0,0,10,75010
10,0,12,2185,2185,0,0,0,0,10,75587
10,0,12,2185,2185,0,0,0,0,10,73970
10,0,12,2185,2185,0,0,0,0,10,69856
10,0,12,2185,2185,0,0,0,0,10,69425
10,0,12,2185,2185,0,0,0,0,10,69656
10,0,12,2185,2185,0,0,0,0,10,77661
10,0,12,2185,2185,0,0,0,0,10,77427
10,0,12,2185,2185,0,0,0,0,10,72271
10,0,12,2185,2185,0,0,0,0,10,76566
10,0,12,2185,2185,0,0,0,0,10,77972
10,0,12,2185,2185,0,0,0,0,10,75925
10,0,12,2185,2185,0,0,0,0,10,81128
10,0,12,2185,2185,0,0,0,0,10,79209
10,0,12,2185,2185,0,0,0,0,10,53350
10,0,12,2185,2185,0,0,0,0,10,54846
10,0,12,2185,2185,0,0,0,0,10,55223
10,0,12,2185,2185,0,0,0,0,10,51873
10,0,12,2185,2185,0,0,0,0,10,54089
10,0,12,2185,2185,0,0,0,0,10,53754
10,0,12,2185,2185,0,0,0,0,10,50900
10,0,12,2185,2185,0,0,0,0,10,49904
10,0,12,2185,2185,0,0,0,0,10,49116
10,0,12,2185,2185,0,0,0,0,10,49767
10,0,12,2185,2185,0,0,0,0,10,50577
10,0,12,2185,2185,0,0,0,0,10,49291
10,0,12,2185,2185,0,0,0,0,10,53715
10,0,12,2185,2185,0,0,0,0,10,52185
10,0,12,2185,2185,0,0,0,0,10,52618
10,0,12,2185,2185,0,0,0,0,10,53893
10,0,12,2185,2185,0,0,0,0,10,50662
10,0,12,2185,2185,0,0,0,0,10,47207
10,0,12,2185,2185,0,0,0,0,10,41347
10,0,12,2185,2185,0,0,0,0,10,31174
10,0,12,2185,2185,0,0,0,0,10,31463
10,0,12,2185,2185,0,0,0,0,10,31377
10,0,12,2185,2185,0,0,0,0,10,31540
10,0,12,2185,2185,0,0,0,0,10,31400
10,0,12,2185,2185,0,0,0,0,10,31654
10,0,12,2185,2185,0,0,0,0,10,35203
10,0,12,2185,2185,0,0,0,0,10,37012
10,0,12,2185,2185,0,0,0,0,10,31548
10,0,12,2185,2185,0,0,0,0,10,43437
10,0,12,2185,2185,0,0,0,0,10,36410
10,0,12,2185,2185,0,0,0,0,10,24954
10,0,12,2185,2185,0,0,0,0,10,24252
10,0,12,2185,2185,0,0,0,0,10,24528
10,0,12,2185,2185,0,0,0,0,10,24409
10,0,12,2185,2185,0,0,0,0,10,24760
10,0,12,2185,2185,0,0,0,0,10,24136
10,0,12,2185,2185,0,0,0,0,10,24075
10,0,12,2185,2185,0,0,0,0,10,24136
10,0,12,2185,2185,0,0,0,0,10,24401
10,0,12,2185,2185,0,0,0,0,10,24014
10,0,12,2185,2185,0,0,0,0,10,24392
10,0,12,2185,2185,0,0,0,0,10,24152
10,0,12,2185,2185,0,0,0,0,10,24630
10,0,12,2185,2185,0,0,0,0,10,24391
10,0,12,2185,2185,0,0,0,0,10,24160
10,0,12,2185,2185,0,0,0,0,10,24324
10,0,12,2185,2185,0,0,0,0,10,24325
10,0,12,2185,2185,0,0,0,0,10,24112
10,0,12,2185,2185,0,0,0,0,10,24626
2,9,12,2973,2439,5,0,0,0,7,24815
2,9,12,2973,2439,5,0,0,0,7,17998
2,9,12,2973,2439,5,0,0,0,7,17076
2,9,12,2973,2439,5,0,0,0,7,16791
2,9,12,2973,2439,5,0,0,0,7,16716
2,9,12,2973,2439,5,0,0,0,7,17231
2,9,12,2973,2439,5,0,0,0,7,17067
2,9,12,2973,2439,5,0,0,0,7,16795
2,9,12,2973,2439,5,0,0,0,7,16762
2,9,12,2973,2439,5,0,0,0,7,17356
2,9,12,2973,2439,5,0,0,0,7,16816
2,9,12,2973,2439,5,0,0,0,7,17033
2,9,12,2973,2439,5,0,0,0,7,16846
2,9,12,2973,2439,5,0,0,0,7,16841
2,9,12,2973,2439,5,0,0,0,7,16993
2,9,12,2973,2439,5,0,0,0,7,16689
2,9,12,2973,2439,5,0,0,0,7,16704
2,9,12,2973,2439,5,0,0,0,7,16825
2,9,12,2973,2439,5,0,0,0,7,16837
2,9,12,2973,2439,5,0,0,0,7,16913
2,9,12,2973,2439,5,0,0,0,7,16938
2,9,12,2973,2439,5,0,0,0,7,17375
2,9,12,2973,2439,5,0,0,0,7,16970
2,9,12,2973,2439,5,0,0,0,7,17096
2,9,12,2973,2439,5,0,0,0,7,16749
2,9,12,2973,2439,5,0,0,0,7,17551
2,9,12,2973,2439,5,0,0,0,7,17017
2,9,12,2973,2439,5,0,0,0,7,17053
2,9,12,2973,2439,5,0,0,0,7,16906
2,9,12,2973,2439,5,0,0,0,7,17257
2,9,12,2973,2439,5,0,0,0,7,16833
2,9,12,2973,2439,5,0,0,0,7,17079
2,9,12,2973,2439,5,0,0,0,7,16937
2,9,12,2973,2439,5,0,0,0,7,16910
2,9,12,2973,2439,5,0,0,0,7,17271
2,9,12,2973,2439,5,0,0,0,7,17066
2,9,12,2973,2439,5,0,0,0,7,17090
2,9,12,2973,2439,5,0,0,0,7,17207
2,9,12,2973,2439,5,0,0,0,7,27594
2,9,12,2973,2439,5,0,0,0,7,24376
2,9,12,2973,2439,5,0,0,0,7,24032
2,9,12,2973,2439,5,0,0,0,7,23240
2,9,12,2973,2439,5,0,0,0,7,23584
2,9,12,2973,2439,5,0,0,0,7,23914
2,9,12,2973,2439,5,0,0,0,7,23649
2,9,12,2973,2439,5,0,0,0,7,23642
2,9,12,2973,2439,5,0,0,0,7,23516
2,9,12,2973,2439,5,0,0,0,7,23615
2,9,12,2973,2439,5,0,0,0,7,23626
2,9,12,2973,2439,5,0,0,0,7,23386
2,9,12,2973,2439,5,0,0,0,7,23529
2,9,12,2973,2439,5,0,0,0,7,23550
2,9,12,2973,2439,5,0,0,0,7,23336
2,9,12,2973,2439,5,0,0,0,7,23387
2,9,12,2973,2439,5,0,0,0,7,23682
2,9,12,2973,2439,5,0,0,0,7,23308
2,9,12,2973,2439,5,0,0,0,7,23479
2,9,12,2973,2439,5,0,0,0,7,23402
2,9,12,2973,2439,5,0,0,0,7,23828
2,9,12,2973,2439,5,0,0,0,7,23602
2,9,12,2973,2439,5,0,0,0,7,24210
2,9,12,2973,2439,5,0,0,0,7,24061
2,9,12,2973,2439,5,0,0,0,7,31900
2,9,12,2973,2439,5,0,0,0,7,53711
2,9,12,2973,2439,5,0,0,0,7,35683
2,9,12,2973,2439,5,0,0,0,7,36591
2,9,12,2973,2439,5,0,0,0,7,31650
2,9,12,2973,2439,5,0,0,0,7,23771
2,9,12,2973,2439,5,0,0,0,7,29065
2,9,12,2973,2439,5,0,0,0,7,17132
2,9,12,2973,2439,5,0,0,0,7,17459
2,9,12,2973,2439,5,0,0,0,7,18858
2,9,12,2973,2439,5,0,0,0,7,26217
2,9,12,2973,2439,5,0,0,0,7,24542
2,9,12,2973,2439,5,0,0,0,7,21482
2,9,12,2973,2439,5,0,0,0,7,17540
2,9,12,2973,2439,5,0,0,0,7,17074
2,9,12,2973,2439,5,0,0,0,7,17237
2,9,12,2973,2439,5,0,0,0,7,17417
2,9,12,2973,2439,5,0,0,0,7,17574
2,9,12,2973,2439,5,0,0,0,7,17407
2,9,12,2973,2439,5,0,0,0,7,17397
2,9,12,2973,2439,5,0,0,0,7,17514
2,9,12,2973,2439,5,0,0,0,7,17637
2,9,12,2973,2439,5,0,0,0,7,17380
2,9,12,2973,2439,5,0,0,0,7,17072
2,9,12,2973,2439,5,0,0,0,7,17217
2,9,12,2973,2439,5,0,0,0,7,17370
2,9,12,2973,2439,5,0,0,0,7,17397
2,9,12,2973,2439,5,0,0,0,7,17166
2,9,12,2973,2439,5,0,0,0,7,17252
2,9,12,2973,2439,5,0,0,0,7,17318
2,9,12,2973,2439,5,0,0,0,7,17074
2,9,12,2973,2439,5,0,0,0,7,17180
2,9,12,2973,2439,5,0,0,0,7,17230
2,9,12,2973,2439,5,0,0,0,7,17305
2,9,12,2973,2439,5,0,0,0,7,17027
2,9,12,2973,2439,5,0,0,0,7,17009
2,9,12,2973,2439,5,0,0,0,7,17252
2,9,12,2973,2439,5,0,0,0,7,17194
6,6,12,4711,2981,11,0,0,0,11,88275
6,6,12,4711,2981,11,0,0,0,11,86058
6,6,12,4711,2981,11,0,0,0,11,85115
6,6,12,4711,2981,11,0,0,0,11,85913
6,6,12,4711,2981,11,0,0,0,11,85364
6,6,12,4711,2981,11,0,0,0,11,84895
6,6,12,4711,2981,11,0,0,0,11,84713
6,6,12,4711,2981,11,0,0,0,11,85210
6,6,12,4711,2981,11,0,0,0,11,84936
6,6,12,4711,2981,11,0,0,0,11,83765
6,6,12,4711,2981,11,0,0,0,11,83570
6,6,12,4711,2981,11,0,0,0,11,84982
6,6,12,4711,2981,11,0,0,0,11,84566
6,6,12,4711,2981,11,0,0,0,11,84994
6,6,12,4711,2981,11,0,0,0,11,83632
6,6,12,4711,2981,11,0,0,0,11,85135
6,6,12,4711,2981,11,0,0,0,11,84901
6,6,12,4711,2981,11,0,0,0,11,84915
6,6,12,4711,2981,11,0,0,0,11,84635
6,6,12,4711,2981,11,0,0,0,11,83862
6,6,12,4711,2981,11,0,0,0,11,83580
6,6,12,4711,2981,11,0,0,0,11,84261
6,6,12,4711,2981,11,0,0,0,11,84607
6,6,12,4711,2981,11,0,0,0,11,83865
6,6,12,4711,2981,11,0,0,0,11,84117
6,6,12,4711,2981,11,0,0,0,11,84195
6,6,12,4711,2981,11,0,0,0,11,84307
6,6,12,4711,2981,11,0,0,0,11,84704
6,6,12,4711,2981,11,0,0,0,11,84837
6,6,12,4711,2981,11,0,0,0,11,84079
6,6,12,4711,2981,11,0,0,0,11,83531
6,6,12,4711,2981,11,0,0,0,11,84212
6,6,12,4711,2981,11,0,0,0,11,104157
6,6,12,4711,2981,11,0,0,0,11,84651
6,6,12,4711,2981,11,0,0,0,11,83601
6,6,12,4711,2981,11,0,0,0,11,83677
6,6,12,4711,2981,11,0,0,0,11,83161
6,6,12,4711,2981,11,0,0,0,11,83622
6,6,12,4711,2981,11,0,0,0,11,98369
6,6,12,4711,2981,11,0,0,0,11,99520
6,6,12,4711,2981,11,0,0,0,11,82158
6,6,12,4711,2981,11,0,0,0,11,80601
6,6,12,4711,2981,11,0,0,0,11,81428
6,6,12,4711,2981,11,0,0,0,11,81386
6,6,12,4711,2981,11,0,0,0,11,81757
6,6,12,4711,2981,11,0,0,0,11,81852
6,6,12,4711,2981,11,0,0,0,11,81952
6,6,12,4711,2981,11,0,0,0,11,80547
6,6,12,4711,2981,11,0,0,0,11,81753
6,6,12,4711,2981,11,0,0,0,11,81783
6,6,12,4711,2981,11,0,0,0,11,81486
6,6,12,4711,2981,11,0,0,0,11,80675
6,6,12,4711,2981,11,0,0,0,11,80534
6,6,12,4711,2981,11,0,0,0,11,81188
6,6,12,4711,2981,11,0,0,0,11,81024
6,6,12,4711,2981,11,0,0,0,11,80611
6,6,12,4711,2981,11,0,0,0,11,80608
6,6,12,4711,2981,11,0,0,0,11,81203
6,6,12,4711,2981,11,0,0,0,11,81238
6,6,12,4711,2981,11,0,0,0,11,81732
6,6,12,4711,2981,11,0,0,0,11,81006
6,6,12,4711,2981,11,0,0,0,11,80324
6,6,12,4711,2981,11,0,0,0,11,80539
6,6,12,4711,2981,11,0,0,0,11,80490
6,6,12,4711,2981,11,0,0,0,11,81527
6,6,12,4711,2981,11,0,0,0,11,81645
6,6,12,4711,2981,11,0,0,0,11,80774
6,6,12,4711,2981,11,0,0,0,11,81539
6,6,12,4711,2981,11,0,0,0,11,81580
6,6,12,4711,2981,11,0,0,0,11,81782
6,6,12,4711,2981,11,0,0,0,11,81989
6,6,12,4711,2981,11,0,0,0,11,81681
6,6,12,4711,2981,11,0,0,0,11,81485
6,6,12,4711,2981,11,0,0,0,11,81197
6,6,12,4711,2981,11,0,0,0,11,82183
6,6,12,4711,2981,11,0,0,0,11,80743
6,6,12,4711,2981,11,0,0,0,11,81792
6,6,12,4711,2981,11,0,0,0,11,98816
6,6,12,4711,2981,11,0,0,0,11,92364
6,6,12,4711,2981,11,0,0,0,11,80798
6,6,12,4711,2981,11,0,0,0,11,80915
6,6,12,4711,2981,11,0,0,0,11,81244
6,6,12,4711,2981,11,0,0,0,11,80785
6,6,12,4711,2981,11,0,0,0,11,81743
6,6,12,4711,2981,11,0,0,0,11,81836
6,6,12,4711,2981,11,0,0,0,11,81794
6,6,12,4711,2981,11,0,0,0,11,81375
6,6,12,4711,2981,11,0,0,0,11,81825
6,6,12,4711,2981,11,0,0,0,11,81895
6,6,12,4711,2981,11,0,0,0,11,80537
6,6,12,4711,2981,11,0,0,0,11,80552
6,6,12,4711,2981,11,0,0,0,11,80783
6,6,12,4711,2981,11,0,0,0,11,80721
6,6,12,4711,2981,11,0,0,0,11,81402
6,6,12,4711,2981,11,0,0,0,11,81662
6,6,12,4711,2981,11,0,0,0,11,80849
6,6,12,4711,2981,11,0,0,0,11,80618
6,6,12,4711,2981,11,0,0,0,11,80681
6,6,12,4711,2981,11,0,0,0,11,81351
6,6,12,4711,2981,11,0,0,0,11,80662
9,4,12,3002,2414,5,0,0,0,11,48420
9,4,12,3002,2414,5,0,0,0,11,40888
9,4,12,3002,2414,5,0,0,0,11,40224
9,4,12,3002,2414,5,0,0,0,11,40244
9,4,12,3002,2414,5,0,0,0,11,40250
9,4,12,3002,2414,5,0,0,0,11,40217
9,4,12,3002,2414,5,0,0,0,11,40350
9,4,12,3002,2414,5,0,0,0,11,40353
9,4,12,3002,2414,5,0,0,0,11,40377
9,4,12,3002,2414,5,0,0,0,11,40120
9,4,12,3002,2414,5,0,0,0,11,39690
9,4,12,3002,2414,5,0,0,0,11,40048
9,4,12,3002,2414,5,0,0,0,11,40403
9,4,12,3002,2414,5,0,0,0,11,40078
9,4,12,3002,2414,5,0,0,0,11,40314
9,4,12,3002,2414,5,0,0,0,11,40225
9,4,12,3002,2414,5,0,0,0,11,40270
9,4,12,3002,2414,5,0,0,0,11,39923
9,4,12,3002,2414,5,0,0,0,11,40180
9,4,12,3002,2414,5,0,0,0,11,40450
9,4,12,3002,2414,5,0,0,0,11,40173
9,4,12,3002,2414,5,0,0,0,11,40059
9,4,12,3002,2414,5,0,0,0,11,40218
9,4,12,3002,2414,5,0,0,0,11,40121
9,4,12,3002,2414,5,0,0,0,11,40160
9,4,12,3002,2414,5,0,0,0,11,40113
9,4,12,3002,2414,5,0,0,0,11,39992
9,4,12,3002,2414,5,0,0,0,11,39801
9,4,12,3002,2414,5,0,0,0,11,39630
9,4,12,3002,2414,5,0,0,0,11,39779
9,4,12,3002,2414,5,0,0,0,11,39908
9,4,12,3002,2414,5,0,0,0,11,40131
9,4,12,3002,2414,5,0,0,0,11,40173
9,4,12,3002,2414,5,0,0,0,11,39820
9,4,12,3002,2414,5,0,0,0,11,39886
9,4,12,3002,2414,5,0,0,0,11,39786
9,4,12,3002,2414,5,0,0,0,11,39820
9,4,12,3002,2414,5,0,0,0,11,39755
9,4,12,3002,2414,5,0,0,0,11,39880
9,4,12,3002,2414,5,0,0,0,11,40324
9,4,12,3002,2414,5,0,0,0,11,39774
9,4,12,3002,2414,5,0,0,0,11,40330
9,4,12,3002,2414,5,0,0,0,11,40134
9,4,12,3002,2414,5,0,0,0,11,40433
9,4,12,3002,2414,5,0,0,0,11,43709
9,4,12,3002,2414,5,0,0,0,11,40079
9,4,12,3002,2414,5,0,0,0,11,40013
9,4,12,3002,2414,5,0,0,0,11,40137
9,4,12,3002,2414,5,0,0,0,11,39658
9,4,12,3002,2414,5,0,0,0,11,39832
9,4,12,3002,2414,5,0,0,0,11,40354
9,4,12,3002,2414,5,0,0,0,11,39927
9,4,12,3002,2414,5,0,0,0,11,40179
9,4,12,3002,2414,5,0,0,0,11,39885
9,4,12,3002,2414,5,0,0,0,11,40078
9,4,12,3002,2414,5,0,0,0,11,40010
9,4,12,3002,2414,5,0,0,0,11,39876
9,4,12,3002,2414,5,0,0,0,11,39570
9,4,12,3002,2414,5,0,0,0,11,39971
9,4,12,3002,2414,5,0,0,0,11,40003
9,4,12,3002,2414,5,0,0,0,11,39843
9,4,12,3002,2414,5,0,0,0,11,39971
9,4,12,3002,2414,5,0,0,0,11,40125
9,4,12,3002,2414,5,0,0,0,11,40039
9,4,12,3002,2414,5,0,0,0,11,39712
9,4,12,3002,2414,5,0,0,0,11,39608
9,4,12,3002,2414,5,0,0,0,11,39750
9,4,12,3002,2414,5,0,0,0,11,39623
9,4,12,3002,2414,5,0,0,0,11,39876
9,4,12,3002,2414,5,0,0,0,11,39906
9,4,12,3002,2414,5,0,0,0,11,40012
9,4,12,3002,2414,5,0,0,0,11,39860
9,4,12,3002,2414,5,0,0,0,11,40205
9,4,12,3002,2414,5,0,0,0,11,39934
9,4,12,3002,2414,5,0,0,0,11,40211
9,4,12,3002,2414,5,0,0,0,11,40075
9,4,12,3002,2414,5,0,0,0,11,40037
9,4,12,3002,2414,5,0,0,0,11,40139
9,4,12,3002,2414,5,0,0,0,11,39978
9,4,12,3002,2414,5,0,0,0,11,39841
9,4,12,3002,2414,5,0,0,0,11,39911
9,4,12,3002,2414,5,0,0,0,11,40261
9,4,12,3002,2414,5,0,0,0,11,40001
9,4,12,3002,2414,5,0,0,0,11,40079
9,4,12,3002,2414,5,0,0,0,11,40514
9,4,12,3002,2414,5,0,0,0,11,40077
9,4,12,3002,2414,5,0,0,0,11,39889
9,4,12,3002,2414,5,0,0,0,11,40193
9,4,12,3002,2414,5,0,0,0,11,40065
9,4,12,3002,2414,5,0,0,0,11,40067
9,4,12,3002,2414,5,0,0,0,11,39671
9,4,12,3002,2414,5,0,0,0,11,39534
9,4,12,3002,2414,5,0,0,0,11,39924
9,4,12,3002,2414,5,0,0,0,11,40252
9,4,12,3002,2414,5,0,0,0,11,40012
9,4,12,3002,2414,5,0,0,0,11,40017
9,4,12,3002,2414,5,0,0,0,11,40106
9,4,12,3002,2414,5,0,0,0,11,41047
9,4,12,3002,2414,5,0,0,0,11,39806
9,4,12,3002,2414,5,0,0,0,11,40002
10,4,12,2836,2836,0,0,0,0,13,50211
10,4,12,2836,2836,0,0,0,0,13,43439
10,4,12,2836,2836,0,0,0,0,13,43577
10,4,12,2836,2836,0,0,0,0,13,43456
10,4,12,2836,2836,0,0,0,0,13,42935
10,4,12,2836,2836,0,0,0,0,13,42817
10,4,12,2836,2836,0,0,0,0,13,42684
10,4,12,2836,2836,0,0,0,0,13,43100
10,4,12,2836,2836,0,0,0,0,13,42989
10,4,12,2836,2836,0,0,0,0,13,43018
10,4,12,2836,2836,0,0,0,0,13,43156
10,4,12,2836,2836,0,0,0,0,13,42778
10,4,12,2836,2836,0,0,0,0,13,42753
10,4,12,2836,2836,0,0,0,0,13,42870
10,4,12,2836,2836,0,0,0,0,13,42863
10,4,12,2836,2836,0,0,0,0,13,42704
10,4,12,2836,2836,0,0,0,0,13,42608
10,4,12,2836,2836,0,0,0,0,13,42720
10,4,12,2836,2836,0,0,0,0,13,42763
10,4,12,2836,2836,0,0,0,0,13,42777
10,4,12,2836,2836,0,0,0,0,13,42787
10,4,12,2836,2836,0,0,0,0,13,42629
10,4,12,2836,2836,0,0,0,0,13,42963
10,4,12,2836,2836,0,0,0,0,13,43182
10,4,12,2836,2836,0,0,0,0,13,42885
10,4,12,2836,2836,0,0,0,0,13,42700
10,4,12,2836,2836,0,0,0,0,13,42901
10,4,12,2836,2836,0,0,0,0,13,42903
10,4,12,2836,2836,0,0,0,0,13,42981
10,4,12,2836,2836,0,0,0,0,13,42777
10,4,12,2836,2836,0,0,0,0,13,42721
10,4,12,2836,2836,0,0,0,0,13,43169
10,4,12,2836,2836,0,0,0,0,13,42986
10,4,12,2836,2836,0,0,0,0,13,42851
10,4,12,2836,2836,0,0,0,0,13,42575
10,4,12,2836,2836,0,0,0,0,13,42879
10,4,12,2836,2836,0,0,0,0,13,43258
10,4,12,2836,2836,0,0,0,0,13,42576
10,4,12,2836,2836,0,0,0,0,13,42770
10,4,12,2836,2836,0,0,0,0,13,43077
10,4,12,2836,2836,0,0,0,0,13,43063
10,4,12,2836,2836,0,0,0,0,13,42813
10,4,12,2836,2836,0,0,0,0,13,42781
10,4,12,2836,2836,0,0,0,0,13,49248
10,4,12,2836,2836,0,0,0,0,13,72425
10,4,12,2836,2836,0,0,0,0,13,57974
10,4,12,2836,2836,0,0,0,0,13,57118
10,4,12,2836,2836,0,0,0,0,13,46301
10,4,12,2836,2836,0,0,0,0,13,46105
10,4,12,2836,2836,0,0,0,0,13,45770
10,4,12,2836,2836,0,0,0,0,13,45770
10,4,12,2836,2836,0,0,0,0,13,46066
10,4,12,2836,2836,0,0,0,0,13,46752
10,4,12,2836,2836,0,0,0,0,13,46748
10,4,12,2836,2836,0,0,0,0,13,46932
10,4,12,2836,2836,0,0,0,0,13,46084
10,4,12,2836,2836,0,0,0,0,13,45587
10,4,12,2836,2836,0,0,0,0,13,45992
10,4,12,2836,2836,0,0,0,0,13,45909
10,4,12,2836,2836,0,0,0,0,13,45633
10,4,12,2836,2836,0,0,0,0,13,45840
10,4,12,2836,2836,0,0,0,0,13,46107
10,4,12,2836,2836,0,0,0,0,13,46031
10,4,12,2836,2836,0,0,0,0,13,45665
10,4,12,2836,2836,0,0,0,0,13,45862
10,4,12,2836,2836,0,0,0,0,13,45810
10,4,12,2836,2836,0,0,0,0,13,45626
10,4,12,2836,2836,0,0,0,0,13,45720
10,4,12,2836,2836,0,0,0,0,13,45406
10,4,12,2836,2836,0,0,0,0,13,45998
10,4,12,2836,2836,0,0,0,0,13,46012
10,4,12,2836,2836,0,0,0,0,13,45784
10,4,12,2836,2836,0,0,0,0,13,45605
10,4,12,2836,2836,0,0,0,0,13,46039
10,4,12,2836,2836,0,0,0,0,13,45673
10,4,12,2836,2836,0,0,0,0,13,46100
10,4,12,2836,2836,0,0,0,0,13,45779
10,4,12,2836,2836,0,0,0,0,13,45492
10,4,12,2836,2836,0,0,0,0,13,45942
10,4,12,2836,2836,0,0,0,0,13,45776
10,4,12,2836,2836,0,0,0,0,13,45712
10,4,12,2836,2836,0,0,0,0,13,45838
10,4,12,2836,2836,0,0,0,0,13,46849
10,4,12,2836,2836,0,0,0,0,13,47010
10,4,12,2836,2836,0,0,0,0,13,46081
10,4,12,2836,2836,0,0,0,0,13,45916
10,4,12,2836,2836,0,0,0,0,13,45725
10,4,12,2836,2836,0,0,0,0,13,46673
10,4,12,2836,2836,0,0,0,0,13,45731
10,4,12,2836,2836,0,0,0,0,13,45645
10,4,12,2836,2836,0,0,0,0,13,46252
10,4,12,2836,2836,0,0,0,0,13,46389
10,4,12,2836,2836,0,0,0,0,13,46184
10,4,12,2836,2836,0,0,0,0,13,45702
10,4,12,2836,2836,0,0,0,0,13,45944
10,4,12,2836,2836,0,0,0,0,13,46329
10,4,12,2836,2836,0,0,0,0,13,45703
10,4,12,2836,2836,0,0,0,0,13,45945
10,4,12,2836,2836,0,0,0,0,13,45631
10,4,12,2836,2836,0,0,0,0,13,45819
10,5,12,3135,2794,2,0,0,0,12,65302
10,5,12,3135,2794,2,0,0,0,12,59285
10,5,12,3135,2794,2,0,0,0,12,58649
10,5,12,3135,2794,2,0,0,0,12,59302
10,5,12,3135,2794,2,0,0,0,12,74148
10,5,12,3135,2794,2,0,0,0,12,54975
10,5,12,3135,2794,2,0,0,0,12,54444
10,5,12,3135,2794,2,0,0,0,12,54198
10,5,12,3135,2794,2,0,0,0,12,53740
10,5,12,3135,2794,2,0,0,0,12,53792
10,5,12,3135,2794,2,0,0,0,12,54303
10,5,12,3135,2794,2,0,0,0,12,54022
10,5,12,3135,2794,2,0,0,0,12,54301
10,5,12,3135,2794,2,0,0,0,12,53584
10,5,12,3135,2794,2,0,0,0,12,54139
10,5,12,3135,2794,2,0,0,0,12,54047
10,5,12,3135,2794,2,0,0,0,12,54589
10,5,12,3135,2794,2,0,0,0,12,54690
10,5,12,3135,2794,2,0,0,0,12,54217
10,5,12,3135,2794,2,0,0,0,12,54532
10,5,12,3135,2794,2,0,0,0,12,54421
10,5,12,3135,2794,2,0,0,0,12,54762
10,5,12,3135,2794,2,0,0,0,12,54371
10,5,12,3135,2794,2,0,0,0,12,54366
10,5,12,3135,2794,2,0,0,0,12,55443
10,5,12,3135,2794,2,0,0,0,12,54467
10,5,12,3135,2794,2,0,0,0,12,54651
10,5,12,3135,2794,2,0,0,0,12,53787
10,5,12,3135,2794,2,0,0,0,12,54862
10,5,12,3135,2794,2,0,0,0,12,53912
10,5,12,3135,2794,2,0,0,0,12,54494
10,5,12,3135,2794,2,0,0,0,12,54596
10,5,12,3135,2794,2,0,0,0,12,54312
10,5,12,3135,2794,2,0,0,0,12,54275
10,5,12,3135,2794,2,0,0,0,12,54598
10,5,12,3135,2794,2,0,0,0,12,54632
10,5,12,3135,2794,2,0,0,0,12,54190
10,5,12,3135,2794,2,0,0,0,12,54364
10,5,12,3135,2794,2,0,0,0,12,54252
10,5,12,3135,2794,2,0,0,0,12,53906
10,5,12,3135,2794,2,0,0,0,12,54150
10,5,12,3135,2794,2,0,0,0,12,54269
10,5,12,3135,2794,2,0,0,0,12,53889
10,5,12,3135,2794,2,0,0,0,12,54313
10,5,12,3135,2794,2,0,0,0,12,54426
10,5,12,3135,2794,2,0,0,0,12,53514
10,5,12,3135,2794,2,0,0,0,12,54555
10,5,12,3135,2794,2,0,0,0,12,54362
10,5,12,3135,2794,2,0,0,0,12,54290
10,5,12,3135,2794,2,0,0,0,12,54300
10,5,12,3135,2794,2,0,0,0,12,53751
10,5,12,3135,2794,2,0,0,0,12,53572
10,5,12,3135,2794,2,0,0,0,12,54225
10,5,12,3135,2794,2,0,0,0,12,53348
10,5,12,3135,2794,2,0,0,0,12,54255
10,5,12,3135,2794,2,0,0,0,12,54723
10,5,12,3135,2794,2,0,0,0,12,54587
10,5,12,3135,2794,2,0,0,0,12,54607
10,5,12,3135,2794,2,0,0,0,12,54415
10,5,12,3135,2794,2,0,0,0,12,54638
10,5,12,3135,2794,2,0,0,0,12,55147
10,5,12,3135,2794,2,0,0,0,12,54844
10,5,12,3135,2794,2,0,0,0,12,55052
10,5,12,3135,2794,2,0,0,0,12,54080
10,5,12,3135,2794,2,0,0,0,12,54446
10,5,12,3135,2794,2,0,0,0,12,54352
10,5,12,3135,2794,2,0,0,0,12,54122
10,5,12,3135,2794,2,0,0,0,12,53599
10,5,12,3135,2794,2,0,0,0,12,53878
10,5,12,3135,2794,2,0,0,0,12,54584
10,5,12,3135,2794,2,0,0,0,12,54192
10,5,12,3135,2794,2,0,0,0,12,56566
10,5,12,3135,2794,2,0,0,0,12,54244
10,5,12,3135,2794,2,0,0,0,12,54349
10,5,12,3135,2794,2,0,0,0,12,53641
10,5,12,3135,2794,2,0,0,0,12,54518
10,5,12,3135,2794,2,0,0,0,12,54073
10,5,12,3135,2794,2,0,0,0,12,53605
10,5,12,3135,2794,2,0,0,0,12,54419
10,5,12,3135,2794,2,0,0,0,12,54446
10,5,12,3135,2794,2,0,0,0,12,54799
10,5,12,3135,2794,2,0,0,0,12,54604
10,5,12,3135,2794,2,0,0,0,12,53664
10,5,12,3135,2794,2,0,0,0,12,54389
10,5,12,3135,2794,2,0,0,0,12,53737
10,5,12,3135,2794,2,0,0,0,12,54149
10,5,12,3135,2794,2,0,0,0,12,53556
10,5,12,3135,2794,2,0,0,0,12,53547
10,5,12,3135,2794,2,0,0,0,12,53617
10,5,12,3135,2794,2,0,0,0,12,55018
10,5,12,3135,2794,2,0,0,0,12,54337
10,5,12,3135,2794,2,0,0,0,12,53966
10,5,12,3135,2794,2,0,0,0,12,53759
10,5,12,3135,2794,2,0,0,0,12,53540
10,5,12,3135,2794,2,0,0,0,12,53879
10,5,12,3135,2794,2,0,0,0,12,54416
10,5,12,3135,2794,2,0,0,0,12,54047
10,5,12,3135,2794,2,0,0,0,12,53775
10,5,12,3135,2794,2,0,0,0,12,54460
10,5,12,3135,2794,2,0,0,0,12,54297
6,10,12,3016,2690,2,0,0,0,11,46429
6,10,12,3016,2690,2,0,0,0,11,40076
6,10,12,3016,2690,2,0,0,0,11,39491
6,10,12,3016,2690,2,0,0,0,11,39577
6,10,12,3016,2690,2,0,0,0,11,39754
6,10,12,3016,2690,2,0,0,0,11,39458
6,10,12,3016,2690,2,0,0,0,11,39752
6,10,12,3016,2690,2,0,0,0,11,39599
6,10,12,3016,2690,2,0,0,0,11,39608
6,10,12,3016,2690,2,0,0,0,11,39559
6,10,12,3016,2690,2,0,0,0,11,39585
6,10,12,3016,2690,2,0,0,0,11,39334
6,10,12,3016,2690,2,0,0,0,11,39661
6,10,12,3016,2690,2,0,0,0,11,39564
6,10,12,3016,2690,2,0,0,0,11,39570
6,10,12,3016,2690,2,0,0,0,11,39930
6,10,12,3016,2690,2,0,0,0,11,39271
6,10,12,3016,2690,2,0,0,0,11,39504
6,10,12,3016,2690,2,0,0,0,11,39549
6,10,12,3016,2690,2,0,0,0,11,39548
6,10,12,3016,2690,2,0,0,0,11,39475
6,10,12,3016,2690,2,0,0,0,11,39495
6,10,12,3016,2690,2,0,0,0,11,39855
6,10,12,3016,2690,2,0,0,0,11,39889
6,10,12,3016,2690,2,0,0,0,11,40035
6,10,12,3016,2690,2,0,0,0,11,39426
6,10,12,3016,2690,2,0,0,0,11,39412
6,10,12,3016,2690,2,0,0,0,11,39632
6,10,12,3016,2690,2,0,0,0,11,39313
6,10,12,3016,2690,2,0,0,0,11,39861
6,10,12,3016,2690,2,0,0,0,11,39353
6,10,12,3016,2690,2,0,0,0,11,39492
6,10,12,3016,2690,2,0,0,0,11,39538
6,10,12,3016,2690,2,0,0,0,11,39343
6,10,12,3016,2690,2,0,0,0,11,39832
6,10,12,3016,2690,2,0,0,0,11,40086
6,10,12,3016,2690,2,0,0,0,11,39470
6,10,12,3016,2690,2,0,0,0,11,39423
6,10,12,3016,2690,2,0,0,0,11,39558
6,10,12,3016,2690,2,0,0,0,11,39319
6,10,12,3016,2690,2,0,0,0,11,39573
6,10,12,3016,2690,2,0,0,0,11,39706
6,10,12,3016,2690,2,0,0,0,11,39819
6,10,12,3016,2690,2,0,0,0,11,39771
6,10,12,3016,2690,2,0,0,0,11,39622
6,10,12,3016,2690,2,0,0,0,11,53527
6,10,12,3016,2690,2,0,0,0,11,65053
6,10,12,3016,2690,2,0,0,0,11,58669
6,10,12,3016,2690,2,0,0,0,11,60045
6,10,12,3016,2690,2,0,0,0,11,64031
6,10,12,3016,2690,2,0,0,0,11,61267
6,10,12,3016,2690,2,0,0,0,11,65397
6,10,12,3016,2690,2,0,0,0,11,63015
6,10,12,3016,2690,2,0,0,0,11,58247
6,10,12,3016,2690,2,0,0,0,11,57753
6,10,12,3016,2690,2,0,0,0,11,62124
6,10,12,3016,2690,2,0,0,0,11,59581
6,10,12,3016,2690,2,0,0,0,11,60823
6,10,12,3016,2690,2,0,0,0,11,58444
6,10,12,3016,2690,2,0,0,0,11,56610
6,10,12,3016,2690,2,0,0,0,11,57571
6,10,12,3016,2690,2,0,0,0,11,57294
6,10,12,3016,2690,2,0,0,0,11,60090
6,10,12,3016,2690,2,0,0,0,11,60266
6,10,12,3016,2690,2,0,0,0,11,60595
6,10,12,3016,2690,2,0,0,0,11,68524
6,10,12,3016,2690,2,0,0,0,11,41676
6,10,12,3016,2690,2,0,0,0,11,41045
6,10,12,3016,2690,2,0,0,0,11,41623
6,10,12,3016,2690,2,0,0,0,11,41214
6,10,12,3016,2690,2,0,0,0,11,41408
6,10,12,3016,2690,2,0,0,0,11,41478
6,10,12,3016,2690,2,0,0,0,11,41905
6,10,12,3016,2690,2,0,0,0,11,41593
6,10,12,3016,2690,2,0,0,0,11,47067
6,10,12,3016,2690,2,0,0,0,11,41551
6,10,12,3016,2690,2,0,0,0,11,47817
6,10,12,3016,2690,2,0,0,0,11,67276
6,10,12,3016,2690,2,0,0,0,11,46638
6,10,12,3016,2690,2,0,0,0,11,39701
6,10,12,3016,2690,2,0,0,0,11,39658
6,10,12,3016,2690,2,0,0,0,11,39818
6,10,12,3016,2690,2,0,0,0,11,39682
6,10,12,3016,2690,2,0,0,0,11,40376
6,10,12,3016,2690,2,0,0,0,11,40416
6,10,12,3016,2690,2,0,0,0,11,39678
6,10,12,3016,2690,2,0,0,0,11,39461
6,10,12,3016,2690,2,0,0,0,11,40333
6,10,12,3016,2690,2,0,0,0,11,40814
6,10,12,3016,2690,2,0,0,0,11,39900
6,10,12,3016,2690,2,0,0,0,11,39687
6,10,12,3016,2690,2,0,0,0,11,40140
6,10,12,3016,2690,2,0,0,0,11,39791
6,10,12,3016,2690,2,0,0,0,11,40372
6,10,12,3016,2690,2,0,0,0,11,39959
6,10,12,3016,2690,2,0,0,0,11,40863
6,10,12,3016,2690,2,0,0,0,11,41090
6,10,12,3016,2690,2,0,0,0,11,39852
6,10,12,3016,2690,2,0,0,0,11,39481
6,10,12,3016,2690,2,0,0,0,11,39491
1,16,12,717,594,1,0,0,0,4,7499
1,16,12,717,594,1,0,0,0,4,5174
1,16,12,717,594,1,0,0,0,4,4146
1,16,12,717,594,1,0,0,0,4,4038
1,16,12,717,594,1,0,0,0,4,3924
1,16,12,717,594,1,0,0,0,4,3911
1,16,12,717,594,1,0,0,0,4,3933
1,16,12,717,594,1,0,0,0,4,3938
1,16,12,717,594,1,0,0,0,4,4049
1,16,12,717,594,1,0,0,0,4,3896
1,16,12,717,594,1,0,0,0,4,3886
1,16,12,717,594,1,0,0,0,4,3950
1,16,12,717,594,1,0,0,0,4,3885
1,16,12,717,594,1,0,0,0,4,3981
1,16,12,717,594,1,0,0,0,4,3894
1,16,12,717,594,1,0,0,0,4,4012
1,16,12,717,594,1,0,0,0,4,3884
1,16,12,717,594,1,0,0,0,4,3899
1,16,12,717,594,1,0,0,0,4,3806
1,16,12,717,594,1,0,0,0,4,3833
1,16,12,717,594,1,0,0,0,4,3892
1,16,12,717,594,1,0,0,0,4,3806
1,16,12,717,594,1,0,0,0,4,3926
1,16,12,717,594,1,0,0,0,4,3817
1,16,12,717,594,1,0,0,0,4,3795
1,16,12,717,594,1,0,0,0,4,4023
1,16,12,717,594,1,0,0,0,4,3974
1,16,12,717,594,1,0,0,0,4,3838
1,16,12,717,594,1,0,0,0,4,3948
1,16,12,717,594,1,0,0,0,4,3933
1,16,12,717,594,1,0,0,0,4,3962
1,16,12,717,594,1,0,0,0,4,3964
1,16,12,717,594,1,0,0,0,4,3813
1,16,12,717,594,1,0,0,0,4,3846
1,16,12,717,594,1,0,0,0,4,3886
1,16,12,717,594,1,0,0,0,4,3883
1,16,12,717,594,1,0,0,0,4,3873
1,16,12,717,594,1,0,0,0,4,3840
1,16,12,717,594,1,0,0,0,4,3844
1,16,12,717,594,1,0,0,0,4,3849
1,16,12,717,594,1,0,0,0,4,4033
1,16,12,717,594,1,0,0,0,4,3947
1,16,12,717,594,1,0,0,0,4,3825
1,16,12,717,594,1,0,0,0,4,3823
1,16,12,717,594,1,0,0,0,4,3937
1,16,12,717,594,1,0,0,0,4,3876
1,16,12,717,594,1,0,0,0,4,3919
1,16,12,717,594,1,0,0,0,4,3851
1,16,12,717,594,1,0,0,0,4,3861
1,16,12,717,594,1,0,0,0,4,3994
1,16,12,717,594,1,0,0,0,4,3865
1,16,12,717,594,1,0,0,0,4,3844
1,16,12,717,594,1,0,0,0,4,3858
1,16,12,717,594,1,0,0,0,4,3907
1,16,12,717,594,1,0,0,0,4,3884
1,16,12,717,594,1,0,0,0,4,3758
1,16,12,717,594,1,0,0,0,4,4005
1,16,12,717,594,1,0,0,0,4,4007
1,16,12,717,594,1,0,0,0,4,3749
1,16,12,717,594,1,0,0,0,4,3816
1,16,12,717,594,1,0,0,0,4,3786
1,16,12,717,594,1,0,0,0,4,3841
1,16,12,717,594,1,0,0,0,4,3900
1,16,12,717,594,1,0,0,0,4,3868
1,16,12,717,594,1,0,0,0,4,3849
1,16,12,717,594,1,0,0,0,4,3923
1,16,12,717,594,1,0,0,0,4,3972
1,16,12,717,594,1,0,0,0,4,3911
1,16,12,717,594,1,0,0,0,4,3750
1,16,12,717,594,1,0,0,0,4,3923
1,16,12,717,594,1,0,0,0,4,3799
1,16,12,717,594,1,0,0,0,4,3769
1,16,12,717,594,1,0,0,0,4,3916
1,16,12,717,594,1,0,0,0,4,3944
1,16,12,717,594,1,0,0,0,4,3855
1,16,12,717,594,1,0,0,0,4,3805
1,16,12,717,594,1,0,0,0,4,3715
1,16,12,717,594,1,0,0,0,4,4007
1,16,12,717,594,1,0,0,0,4,3836
1,16,12,717,594,1,0,0,0,4,3851
1,16,12,717,594,1,0,0,0,4,3972
1,16,12,717,594,1,0,0,0,4,3928
1,16,12,717,594,1,0,0,0,4,3764
1,16,12,717,594,1,0,0,0,4,3831
1,16,12,717,594,1,0,0,0,4,3700
1,16,12,717,594,1,0,0,0,4,3826
1,16,12,717,594,1,0,0,0,4,3922
1,16,12,717,594,1,0,0,0,4,3816
1,16,12,717,594,1,0,0,0,4,3852
1,16,12,717,594,1,0,0,0,4,3788
1,16,12,717,594,1,0,0,0,4,3890
1,16,12,717,594,1,0,0,0,4,3730
1,16,12,717,594,1,0,0,0,4,3966
1,16,12,717,594,1,0,0,0,4,3875
1,16,12,717,594,1,0,0,0,4,3861
1,16,12,717,594,1,0,0,0,4,3883
1,16,12,717,594,1,0,0,0,4,3874
1,16,12,717,594,1,0,0,0,4,3865
1,16,12,717,594,1,0,0,0,4,3889
1,16,12,717,594,1,0,0,0,4,3837
10,8,12,3202,2757,7,0,0,0,14,108025
10,8,12,3202,2757,7,0,0,0,14,90516
10,8,12,3202,2757,7,0,0,0,14,90217
10,8,12,3202,2757,7,0,0,0,14,91319
10,8,12,3202,2757,7,0,0,0,14,89684
10,8,12,3202,2757,7,0,0,0,14,90173
10,8,12,3202,2757,7,0,0,0,14,90230
10,8,12,3202,2757,7,0,0,0,14,89686
10,8,12,3202,2757,7,0,0,0,14,91342
10,8,12,3202,2757,7,0,0,0,14,90174
10,8,12,3202,2757,7,0,0,0,14,91062
10,8,12,3202,2757,7,0,0,0,14,90740
10,8,12,3202,2757,7,0,0,0,14,90950
10,8,12,3202,2757,7,0,0,0,14,90032
10,8,12,3202,2757,7,0,0,0,14,89914
10,8,12,3202,2757,7,0,0,0,14,89890
10,8,12,3202,2757,7,0,0,0,14,89697
10,8,12,3202,2757,7,0,0,0,14,90526
10,8,12,3202,2757,7,0,0,0,14,90164
10,8,12,3202,2757,7,0,0,0,14,89908
10,8,12,3202,2757,7,0,0,0,14,90235
10,8,12,3202,2757,7,0,0,0,14,91300
10,8,12,3202,2757,7,0,0,0,14,91430
10,8,12,3202,2757,7,0,0,0,14,91466
10,8,12,3202,2757,7,0,0,0,14,91019
10,8,12,3202,2757,7,0,0,0,14,91375
10,8,12,3202,2757,7,0,0,0,14,91078
10,8,12,3202,2757,7,0,0,0,14,90853
10,8,12,3202,2757,7,0,0,0,14,90536
10,8,12,3202,2757,7,0,0,0,14,90255
10,8,12,3202,2757,7,0,0,0,14,90591
10,8,12,3202,2757,7,0,0,0,14,91201
10,8,12,3202,2757,7,0,0,0,14,90073
10,8,12,3202,2757,7,0,0,0,14,90789
10,8,12,3202,2757,7,0,0,0,14,90440
10,8,12,3202,2757,7,0,0,0,14,89612
10,8,12,3202,2757,7,0,0,0,14,90224
10,8,12,3202,2757,7,0,0,0,14,90509
10,8,12,3202,2757,7,0,0,0,14,90730
10,8,12,3202,2757,7,0,0,0,14,91184
10,8,12,3202,2757,7,0,0,0,14,103833
10,8,12,3202,2757,7,0,0,0,14,96287
10,8,12,3202,2757,7,0,0,0,14,93722
10,8,12,3202,2757,7,0,0,0,14,92815
10,8,12,3202,2757,7,0,0,0,14,93170
10,8,12,3202,2757,7,0,0,0,14,93589
10,8,12,3202,2757,7,0,0,0,14,93706
10,8,12,3202,2757,7,0,0,0,14,93467
10,8,12,3202,2757,7,0,0,0,14,92791
10,8,12,3202,2757,7,0,0,0,14,93920
10,8,12,3202,2757,7,0,0,0,14,111688
10,8,12,3202,2757,7,0,0,0,14,90307
10,8,12,3202,2757,7,0,0,0,14,90733
10,8,12,3202,2757,7,0,0,0,14,90047
10,8,12,3202,2757,7,0,0,0,14,92917
10,8,12,3202,2757,7,0,0,0,14,90632
10,8,12,3202,2757,7,0,0,0,14,90479
10,8,12,3202,2757,7,0,0,0,14,91187
10,8,12,3202,2757,7,0,0,0,14,91159
10,8,12,3202,2757,7,0,0,0,14,90826
10,8,12,3202,2757,7,0,0,0,14,91340
10,8,12,3202,2757,7,0,0,0,14,91406
10,8,12,3202,2757,7,0,0,0,14,90754
10,8,12,3202,2757,7,0,0,0,14,91121
10,8,12,3202,2757,7,0,0,0,14,90567
10,8,12,3202,2757,7,0,0,0,14,91008
10,8,12,3202,2757,7,0,0,0,14,90164
10,8,12,3202,2757,7,0,0,0,14,90695
10,8,12,3202,2757,7,0,0,0,14,90995
10,8,12,3202,2757,7,0,0,0,14,90323
10,8,12,3202,2757,7,0,0,0,14,90139
10,8,12,3202,2757,7,0,0,0,14,90682
10,8,12,3202,2757,7,0,0,0,14,90962
10,8,12,3202,2757,7,0,0,0,14,90338
10,8,12,3202,2757,7,0,0,0,14,90104
10,8,12,3202,2757,7,0,0,0,14,91562
10,8,12,3202,2757,7,0,0,0,14,90501
10,8,12,3202,2757,7,0,0,0,14,90100
10,8,12,3202,2757,7,0,0,0,14,91607
10,8,12,3202,2757,7,0,0,0,14,90286
10,8,12,3202,2757,7,0,0,0,14,89970
10,8,12,3202,2757,7,0,0,0,14,91021
10,8,12,3202,2757,7,0,0,0,14,129086
10,8,12,3202,2757,7,0,0,0,14,111687
10,8,12,3202,2757,7,0,0,0,14,91142
10,8,12,3202,2757,7,0,0,0,14,89424
10,8,12,3202,2757,7,0,0,0,14,89896
10,8,12,3202,2757,7,0,0,0,14,90614
10,8,12,3202,2757,7,0,0,0,14,90375
10,8,12,3202,2757,7,0,0,0,14,91064
10,8,12,3202,2757,7,0,0,0,14,90457
10,8,12,3202,2757,7,0,0,0,14,90465
10,8,12,3202,2757,7,0,0,0,14,90479
10,8,12,3202,2757,7,0,0,0,14,90710
10,8,12,3202,2757,7,0,0,0,14,90227
10,8,12,3202,2757,7,0,0,0,14,89801
10,8,12,3202,2757,7,0,0,0,14,90667
10,8,12,3202,2757,7,0,0,0,14,89588
10,8,12,3202,2757,7,0,0,0,14,90127
10,8,12,3202,2757,7,0,0,0,14,90480
