cantGimnasios,cantPokeparadas,tamMochila,distanciaOriginal,distanciaNueva,cantPermutacionesParaMejorar,cantPermutacionesParaMantener,cantReemplazosParaMejorar,cantReemplazosParaMantener,tamCamino,tiempo
1,0,0,0,0,0,0,0,0,1,2669
1,0,0,0,0,0,0,0,0,1,1301
1,0,0,0,0,0,0,0,0,1,901
1,0,0,0,0,0,0,0,0,1,608
1,0,0,0,0,0,0,0,0,1,578
1,0,0,0,0,0,0,0,0,1,611
1,0,0,0,0,0,0,0,0,1,571
1,0,0,0,0,0,0,0,0,1,568
1,0,0,0,0,0,0,0,0,1,562
1,0,0,0,0,0,0,0,0,1,585
1,0,0,0,0,0,0,0,0,1,605
1,0,0,0,0,0,0,0,0,1,612
1,0,0,0,0,0,0,0,0,1,606
1,0,0,0,0,0,0,0,0,1,662
1,0,0,0,0,0,0,0,0,1,637
1,0,0,0,0,0,0,0,0,1,599
1,0,0,0,0,0,0,0,0,1,640
1,0,0,0,0,0,0,0,0,1,606
1,0,0,0,0,0,0,0,0,1,594
1,0,0,0,0,0,0,0,0,1,609
1,0,0,0,0,0,0,0,0,1,632
1,0,0,0,0,0,0,0,0,1,633
1,0,0,0,0,0,0,0,0,1,632
1,0,0,0,0,0,0,0,0,1,631
1,0,0,0,0,0,0,0,0,1,629
1,0,0,0,0,0,0,0,0,1,628
1,0,0,0,0,0,0,0,0,1,634
1,0,0,0,0,0,0,0,0,1,645
1,0,0,0,0,0,0,0,0,1,633
1,0,0,0,0,0,0,0,0,1,633
1,0,0,0,0,0,0,0,0,1,647
1,0,0,0,0,0,0,0,0,1,593
1,0,0,0,0,0,0,0,0,1,617
1,0,0,0,0,0,0,0,0,1,624
1,0,0,0,0,0,0,0,0,1,621
1,0,0,0,0,0,0,0,0,1,632
1,0,0,0,0,0,0,0,0,1,619
1,0,0,0,0,0,0,0,0,1,613
1,0,0,0,0,0,0,0,0,1,632
1,0,0,0,0,0,0,0,0,1,616
1,0,0,0,0,0,0,0,0,1,622
1,0,0,0,0,0,0,0,0,1,610
1,0,0,0,0,0,0,0,0,1,623
1,0,0,0,0,0,0,0,0,1,615
1,0,0,0,0,0,0,0,0,1,619
1,0,0,0,0,0,0,0,0,1,645
1,0,0,0,0,0,0,0,0,1,627
1,0,0,0,0,0,0,0,0,1,621
1,0,0,0,0,0,0,0,0,1,617
1,0,0,0,0,0,0,0,0,1,614
1,0,0,0,0,0,0,0,0,1,618
1,0,0,0,0,0,0,0,0,1,650
1,0,0,0,0,0,0,0,0,1,643
1,0,0,0,0,0,0,0,0,1,606
1,0,0,0,0,0,0,0,0,1,633
1,0,0,0,0,0,0,0,0,1,604
1,0,0,0,0,0,0,0,0,1,633
1,0,0,0,0,0,0,0,0,1,597
1,0,0,0,0,0,0,0,0,1,643
1,0,0,0,0,0,0,0,0,1,599
1,0,0,0,0,0,0,0,0,1,618
1,0,0,0,0,0,0,0,0,1,600
1,0,0,0,0,0,0,0,0,1,624
1,0,0,0,0,0,0,0,0,1,645
1,0,0,0,0,0,0,0,0,1,603
1,0,0,0,0,0,0,0,0,1,607
1,0,0,0,0,0,0,0,0,1,595
1,0,0,0,0,0,0,0,0,1,584
1,0,0,0,0,0,0,0,0,1,601
1,0,0,0,0,0,0,0,0,1,594
1,0,0,0,0,0,0,0,0,1,622
1,0,0,0,0,0,0,0,0,1,608
1,0,0,0,0,0,0,0,0,1,600
1,0,0,0,0,0,0,0,0,1,626
1,0,0,0,0,0,0,0,0,1,611
1,0,0,0,0,0,0,0,0,1,624
1,0,0,0,0,0,0,0,0,1,595
1,0,0,0,0,0,0,0,0,1,584
1,0,0,0,0,0,0,0,0,1,583
1,0,0,0,0,0,0,0,0,1,583
1,0,0,0,0,0,0,0,0,1,581
1,0,0,0,0,0,0,0,0,1,584
1,0,0,0,0,0,0,0,0,1,584
1,0,0,0,0,0,0,0,0,1,584
1,0,0,0,0,0,0,0,0,1,589
1,0,0,0,0,0,0,0,0,1,599
1,0,0,0,0,0,0,0,0,1,617
1,0,0,0,0,0,0,0,0,1,593
1,0,0,0,0,0,0,0,0,1,598
1,0,0,0,0,0,0,0,0,1,576
1,0,0,0,0,0,0,0,0,1,616
1,0,0,0,0,0,0,0,0,1,593
1,0,0,0,0,0,0,0,0,1,601
1,0,0,0,0,0,0,0,0,1,601
1,0,0,0,0,0,0,0,0,1,595
1,0,0,0,0,0,0,0,0,1,592
1,0,0,0,0,0,0,0,0,1,594
1,0,0,0,0,0,0,0,0,1,597
1,0,0,0,0,0,0,0,0,1,605
1,0,0,0,0,0,0,0,0,1,620
1,1,2,662,662,0,0,0,0,2,3438
1,1,2,662,662,0,0,0,0,2,2672
1,1,2,662,662,0,0,0,0,2,2965
1,1,2,662,662,0,0,0,0,2,1311
1,1,2,662,662,0,0,0,0,2,1159
1,1,2,662,662,0,0,0,0,2,1214
1,1,2,662,662,0,0,0,0,2,1178
1,1,2,662,662,0,0,0,0,2,1196
1,1,2,662,662,0,0,0,0,2,1120
1,1,2,662,662,0,0,0,0,2,1168
1,1,2,662,662,0,0,0,0,2,1132
1,1,2,662,662,0,0,0,0,2,1131
1,1,2,662,662,0,0,0,0,2,1125
1,1,2,662,662,0,0,0,0,2,1182
1,1,2,662,662,0,0,0,0,2,1181
1,1,2,662,662,0,0,0,0,2,1153
1,1,2,662,662,0,0,0,0,2,1184
1,1,2,662,662,0,0,0,0,2,1134
1,1,2,662,662,0,0,0,0,2,1160
1,1,2,662,662,0,0,0,0,2,1141
1,1,2,662,662,0,0,0,0,2,1222
1,1,2,662,662,0,0,0,0,2,1134
1,1,2,662,662,0,0,0,0,2,1193
1,1,2,662,662,0,0,0,0,2,1147
1,1,2,662,662,0,0,0,0,2,1156
1,1,2,662,662,0,0,0,0,2,1146
1,1,2,662,662,0,0,0,0,2,1172
1,1,2,662,662,0,0,0,0,2,1248
1,1,2,662,662,0,0,0,0,2,1111
1,1,2,662,662,0,0,0,0,2,1171
1,1,2,662,662,0,0,0,0,2,1178
1,1,2,662,662,0,0,0,0,2,1194
1,1,2,662,662,0,0,0,0,2,1183
1,1,2,662,662,0,0,0,0,2,1195
1,1,2,662,662,0,0,0,0,2,1205
1,1,2,662,662,0,0,0,0,2,1308
1,1,2,662,662,0,0,0,0,2,1261
1,1,2,662,662,0,0,0,0,2,1159
1,1,2,662,662,0,0,0,0,2,1304
1,1,2,662,662,0,0,0,0,2,1151
1,1,2,662,662,0,0,0,0,2,1178
1,1,2,662,662,0,0,0,0,2,1176
1,1,2,662,662,0,0,0,0,2,1210
1,1,2,662,662,0,0,0,0,2,1255
1,1,2,662,662,0,0,0,0,2,1156
1,1,2,662,662,0,0,0,0,2,1161
1,1,2,662,662,0,0,0,0,2,1148
1,1,2,662,662,0,0,0,0,2,1171
1,1,2,662,662,0,0,0,0,2,1125
1,1,2,662,662,0,0,0,0,2,1223
1,1,2,662,662,0,0,0,0,2,1217
1,1,2,662,662,0,0,0,0,2,1362
1,1,2,662,662,0,0,0,0,2,1246
1,1,2,662,662,0,0,0,0,2,1245
1,1,2,662,662,0,0,0,0,2,1228
1,1,2,662,662,0,0,0,0,2,1269
1,1,2,662,662,0,0,0,0,2,1187
1,1,2,662,662,0,0,0,0,2,1221
1,1,2,662,662,0,0,0,0,2,1174
1,1,2,662,662,0,0,0,0,2,1167
1,1,2,662,662,0,0,0,0,2,1197
1,1,2,662,662,0,0,0,0,2,1194
1,1,2,662,662,0,0,0,0,2,1261
1,1,2,662,662,0,0,0,0,2,1212
1,1,2,662,662,0,0,0,0,2,1228
1,1,2,662,662,0,0,0,0,2,1249
1,1,2,662,662,0,0,0,0,2,1206
1,1,2,662,662,0,0,0,0,2,1159
1,1,2,662,662,0,0,0,0,2,1162
1,1,2,662,662,0,0,0,0,2,1133
1,1,2,662,662,0,0,0,0,2,1110
1,1,2,662,662,0,0,0,0,2,1230
1,1,2,662,662,0,0,0,0,2,1217
1,1,2,662,662,0,0,0,0,2,1212
1,1,2,662,662,0,0,0,0,2,1169
1,1,2,662,662,0,0,0,0,2,1246
1,1,2,662,662,0,0,0,0,2,1169
1,1,2,662,662,0,0,0,0,2,1158
1,1,2,662,662,0,0,0,0,2,1202
1,1,2,662,662,0,0,0,0,2,1198
1,1,2,662,662,0,0,0,0,2,1191
1,1,2,662,662,0,0,0,0,2,1181
1,1,2,662,662,0,0,0,0,2,1140
1,1,2,662,662,0,0,0,0,2,1170
1,1,2,662,662,0,0,0,0,2,1166
1,1,2,662,662,0,0,0,0,2,1191
1,1,2,662,662,0,0,0,0,2,1276
1,1,2,662,662,0,0,0,0,2,1233
1,1,2,662,662,0,0,0,0,2,1144
1,1,2,662,662,0,0,0,0,2,1161
1,1,2,662,662,0,0,0,0,2,1166
1,1,2,662,662,0,0,0,0,2,1154
1,1,2,662,662,0,0,0,0,2,1104
1,1,2,662,662,0,0,0,0,2,1128
1,1,2,662,662,0,0,0,0,2,1160
1,1,2,662,662,0,0,0,0,2,1130
1,1,2,662,662,0,0,0,0,2,1205
1,1,2,662,662,0,0,0,0,2,1209
1,1,2,662,662,0,0,0,0,2,1178
1,1,2,662,662,0,0,0,0,2,1173
3,0,0,528,528,0,2,0,0,3,15420
3,0,0,528,528,0,2,0,0,3,7469
3,0,0,528,528,0,2,0,0,3,6018
3,0,0,528,528,0,2,0,0,3,5859
3,0,0,528,528,0,2,0,0,3,5852
3,0,0,528,528,0,2,0,0,3,5899
3,0,0,528,528,0,2,0,0,3,5882
3,0,0,528,528,0,2,0,0,3,5841
3,0,0,528,528,0,2,0,0,3,5861
3,0,0,528,528,0,2,0,0,3,5834
3,0,0,528,528,0,2,0,0,3,5844
3,0,0,528,528,0,2,0,0,3,5845
3,0,0,528,528,0,2,0,0,3,5826
3,0,0,528,528,0,2,0,0,3,5825
3,0,0,528,528,0,2,0,0,3,5831
3,0,0,528,528,0,2,0,0,3,5833
3,0,0,528,528,0,2,0,0,3,5832
3,0,0,528,528,0,2,0,0,3,5824
3,0,0,528,528,0,2,0,0,3,5827
3,0,0,528,528,0,2,0,0,3,5827
3,0,0,528,528,0,2,0,0,3,5799
3,0,0,528,528,0,2,0,0,3,5785
3,0,0,528,528,0,2,0,0,3,5818
3,0,0,528,528,0,2,0,0,3,5822
3,0,0,528,528,0,2,0,0,3,5867
3,0,0,528,528,0,2,0,0,3,5849
3,0,0,528,528,0,2,0,0,3,5820
3,0,0,528,528,0,2,0,0,3,5888
3,0,0,528,528,0,2,0,0,3,5797
3,0,0,528,528,0,2,0,0,3,5826
3,0,0,528,528,0,2,0,0,3,5787
3,0,0,528,528,0,2,0,0,3,5765
3,0,0,528,528,0,2,0,0,3,5781
3,0,0,528,528,0,2,0,0,3,5743
3,0,0,528,528,0,2,0,0,3,5799
3,0,0,528,528,0,2,0,0,3,6078
3,0,0,528,528,0,2,0,0,3,5890
3,0,0,528,528,0,2,0,0,3,5822
3,0,0,528,528,0,2,0,0,3,5794
3,0,0,528,528,0,2,0,0,3,5781
3,0,0,528,528,0,2,0,0,3,5757
3,0,0,528,528,0,2,0,0,3,5874
3,0,0,528,528,0,2,0,0,3,5886
3,0,0,528,528,0,2,0,0,3,5808
3,0,0,528,528,0,2,0,0,3,5792
3,0,0,528,528,0,2,0,0,3,5761
3,0,0,528,528,0,2,0,0,3,5761
3,0,0,528,528,0,2,0,0,3,5742
3,0,0,528,528,0,2,0,0,3,5749
3,0,0,528,528,0,2,0,0,3,5737
3,0,0,528,528,0,2,0,0,3,5755
3,0,0,528,528,0,2,0,0,3,5751
3,0,0,528,528,0,2,0,0,3,5742
3,0,0,528,528,0,2,0,0,3,5795
3,0,0,528,528,0,2,0,0,3,6085
3,0,0,528,528,0,2,0,0,3,6078
3,0,0,528,528,0,2,0,0,3,5897
3,0,0,528,528,0,2,0,0,3,5795
3,0,0,528,528,0,2,0,0,3,5848
3,0,0,528,528,0,2,0,0,3,5771
3,0,0,528,528,0,2,0,0,3,5804
3,0,0,528,528,0,2,0,0,3,5899
3,0,0,528,528,0,2,0,0,3,5896
3,0,0,528,528,0,2,0,0,3,6086
3,0,0,528,528,0,2,0,0,3,5755
3,0,0,528,528,0,2,0,0,3,5743
3,0,0,528,528,0,2,0,0,3,5756
3,0,0,528,528,0,2,0,0,3,5756
3,0,0,528,528,0,2,0,0,3,5728
3,0,0,528,528,0,2,0,0,3,5735
3,0,0,528,528,0,2,0,0,3,5722
3,0,0,528,528,0,2,0,0,3,5741
3,0,0,528,528,0,2,0,0,3,5742
3,0,0,528,528,0,2,0,0,3,5711
3,0,0,528,528,0,2,0,0,3,5725
3,0,0,528,528,0,2,0,0,3,5737
3,0,0,528,528,0,2,0,0,3,5720
3,0,0,528,528,0,2,0,0,3,5690
3,0,0,528,528,0,2,0,0,3,5696
3,0,0,528,528,0,2,0,0,3,5738
3,0,0,528,528,0,2,0,0,3,5723
3,0,0,528,528,0,2,0,0,3,5724
3,0,0,528,528,0,2,0,0,3,5768
3,0,0,528,528,0,2,0,0,3,5763
3,0,0,528,528,0,2,0,0,3,5770
3,0,0,528,528,0,2,0,0,3,5746
3,0,0,528,528,0,2,0,0,3,5758
3,0,0,528,528,0,2,0,0,3,5722
3,0,0,528,528,0,2,0,0,3,5731
3,0,0,528,528,0,2,0,0,3,5698
3,0,0,528,528,0,2,0,0,3,5696
3,0,0,528,528,0,2,0,0,3,5728
3,0,0,528,528,0,2,0,0,3,6006
3,0,0,528,528,0,2,0,0,3,5764
3,0,0,528,528,0,2,0,0,3,5797
3,0,0,528,528,0,2,0,0,3,5759
3,0,0,528,528,0,2,0,0,3,5759
3,0,0,528,528,0,2,0,0,3,5761
3,0,0,528,528,0,2,0,0,3,5773
3,0,0,528,528,0,2,0,0,3,5792
3,1,3,1503,1223,3,0,0,0,4,10789
3,1,3,1503,1223,3,0,0,0,4,6783
3,1,3,1503,1223,3,0,0,0,4,5531
3,1,3,1503,1223,3,0,0,0,4,5410
3,1,3,1503,1223,3,0,0,0,4,5239
3,1,3,1503,1223,3,0,0,0,4,5153
3,1,3,1503,1223,3,0,0,0,4,5278
3,1,3,1503,1223,3,0,0,0,4,5193
3,1,3,1503,1223,3,0,0,0,4,5151
3,1,3,1503,1223,3,0,0,0,4,5398
3,1,3,1503,1223,3,0,0,0,4,5167
3,1,3,1503,1223,3,0,0,0,4,5146
3,1,3,1503,1223,3,0,0,0,4,5195
3,1,3,1503,1223,3,0,0,0,4,5206
3,1,3,1503,1223,3,0,0,0,4,5221
3,1,3,1503,1223,3,0,0,0,4,5188
3,1,3,1503,1223,3,0,0,0,4,5205
3,1,3,1503,1223,3,0,0,0,4,5232
3,1,3,1503,1223,3,0,0,0,4,5195
3,1,3,1503,1223,3,0,0,0,4,5628
3,1,3,1503,1223,3,0,0,0,4,5202
3,1,3,1503,1223,3,0,0,0,4,5289
3,1,3,1503,1223,3,0,0,0,4,5272
3,1,3,1503,1223,3,0,0,0,4,5146
3,1,3,1503,1223,3,0,0,0,4,5155
3,1,3,1503,1223,3,0,0,0,4,5051
3,1,3,1503,1223,3,0,0,0,4,5145
3,1,3,1503,1223,3,0,0,0,4,5341
3,1,3,1503,1223,3,0,0,0,4,5537
3,1,3,1503,1223,3,0,0,0,4,5405
3,1,3,1503,1223,3,0,0,0,4,5375
3,1,3,1503,1223,3,0,0,0,4,5112
3,1,3,1503,1223,3,0,0,0,4,5094
3,1,3,1503,1223,3,0,0,0,4,5059
3,1,3,1503,1223,3,0,0,0,4,5188
3,1,3,1503,1223,3,0,0,0,4,5129
3,1,3,1503,1223,3,0,0,0,4,5187
3,1,3,1503,1223,3,0,0,0,4,5169
3,1,3,1503,1223,3,0,0,0,4,5155
3,1,3,1503,1223,3,0,0,0,4,5093
3,1,3,1503,1223,3,0,0,0,4,5015
3,1,3,1503,1223,3,0,0,0,4,5258
3,1,3,1503,1223,3,0,0,0,4,5039
3,1,3,1503,1223,3,0,0,0,4,5101
3,1,3,1503,1223,3,0,0,0,4,5203
3,1,3,1503,1223,3,0,0,0,4,5267
3,1,3,1503,1223,3,0,0,0,4,5080
3,1,3,1503,1223,3,0,0,0,4,5107
3,1,3,1503,1223,3,0,0,0,4,5156
3,1,3,1503,1223,3,0,0,0,4,5012
3,1,3,1503,1223,3,0,0,0,4,5112
3,1,3,1503,1223,3,0,0,0,4,5088
3,1,3,1503,1223,3,0,0,0,4,5161
3,1,3,1503,1223,3,0,0,0,4,5136
3,1,3,1503,1223,3,0,0,0,4,5127
3,1,3,1503,1223,3,0,0,0,4,5192
3,1,3,1503,1223,3,0,0,0,4,5113
3,1,3,1503,1223,3,0,0,0,4,5096
3,1,3,1503,1223,3,0,0,0,4,5044
3,1,3,1503,1223,3,0,0,0,4,5118
3,1,3,1503,1223,3,0,0,0,4,5146
3,1,3,1503,1223,3,0,0,0,4,5148
3,1,3,1503,1223,3,0,0,0,4,5069
3,1,3,1503,1223,3,0,0,0,4,5028
3,1,3,1503,1223,3,0,0,0,4,5175
3,1,3,1503,1223,3,0,0,0,4,5115
3,1,3,1503,1223,3,0,0,0,4,5071
3,1,3,1503,1223,3,0,0,0,4,5111
3,1,3,1503,1223,3,0,0,0,4,5070
3,1,3,1503,1223,3,0,0,0,4,5134
3,1,3,1503,1223,3,0,0,0,4,5108
3,1,3,1503,1223,3,0,0,0,4,5092
3,1,3,1503,1223,3,0,0,0,4,5151
3,1,3,1503,1223,3,0,0,0,4,5105
3,1,3,1503,1223,3,0,0,0,4,5421
3,1,3,1503,1223,3,0,0,0,4,5119
3,1,3,1503,1223,3,0,0,0,4,5115
3,1,3,1503,1223,3,0,0,0,4,5044
3,1,3,1503,1223,3,0,0,0,4,5090
3,1,3,1503,1223,3,0,0,0,4,4997
3,1,3,1503,1223,3,0,0,0,4,5138
3,1,3,1503,1223,3,0,0,0,4,5070
3,1,3,1503,1223,3,0,0,0,4,5252
3,1,3,1503,1223,3,0,0,0,4,5038
3,1,3,1503,1223,3,0,0,0,4,5337
3,1,3,1503,1223,3,0,0,0,4,5086
3,1,3,1503,1223,3,0,0,0,4,5030
3,1,3,1503,1223,3,0,0,0,4,5148
3,1,3,1503,1223,3,0,0,0,4,5354
3,1,3,1503,1223,3,0,0,0,4,5138
3,1,3,1503,1223,3,0,0,0,4,5321
3,1,3,1503,1223,3,0,0,0,4,5410
3,1,3,1503,1223,3,0,0,0,4,5176
3,1,3,1503,1223,3,0,0,0,4,5003
3,1,3,1503,1223,3,0,0,0,4,5031
3,1,3,1503,1223,3,0,0,0,4,5034
3,1,3,1503,1223,3,0,0,0,4,5118
3,1,3,1503,1223,3,0,0,0,4,5094
3,1,3,1503,1223,3,0,0,0,4,4990
3,1,3,1503,1223,3,0,0,0,4,5326
5,0,0,701,701,0,0,0,0,5,9993
5,0,0,701,701,0,0,0,0,5,7055
5,0,0,701,701,0,0,0,0,5,6013
5,0,0,701,701,0,0,0,0,5,5927
5,0,0,701,701,0,0,0,0,5,5831
5,0,0,701,701,0,0,0,0,5,5651
5,0,0,701,701,0,0,0,0,5,5742
5,0,0,701,701,0,0,0,0,5,5777
5,0,0,701,701,0,0,0,0,5,5579
5,0,0,701,701,0,0,0,0,5,5745
5,0,0,701,701,0,0,0,0,5,5636
5,0,0,701,701,0,0,0,0,5,5648
5,0,0,701,701,0,0,0,0,5,5629
5,0,0,701,701,0,0,0,0,5,5684
5,0,0,701,701,0,0,0,0,5,5592
5,0,0,701,701,0,0,0,0,5,5580
5,0,0,701,701,0,0,0,0,5,5642
5,0,0,701,701,0,0,0,0,5,5632
5,0,0,701,701,0,0,0,0,5,5591
5,0,0,701,701,0,0,0,0,5,5571
5,0,0,701,701,0,0,0,0,5,5633
5,0,0,701,701,0,0,0,0,5,5697
5,0,0,701,701,0,0,0,0,5,5723
5,0,0,701,701,0,0,0,0,5,5714
5,0,0,701,701,0,0,0,0,5,6160
5,0,0,701,701,0,0,0,0,5,5639
5,0,0,701,701,0,0,0,0,5,5660
5,0,0,701,701,0,0,0,0,5,5749
5,0,0,701,701,0,0,0,0,5,5682
5,0,0,701,701,0,0,0,0,5,5630
5,0,0,701,701,0,0,0,0,5,5624
5,0,0,701,701,0,0,0,0,5,5558
5,0,0,701,701,0,0,0,0,5,5571
5,0,0,701,701,0,0,0,0,5,5575
5,0,0,701,701,0,0,0,0,5,5763
5,0,0,701,701,0,0,0,0,5,5580
5,0,0,701,701,0,0,0,0,5,5625
5,0,0,701,701,0,0,0,0,5,5612
5,0,0,701,701,0,0,0,0,5,5698
5,0,0,701,701,0,0,0,0,5,5532
5,0,0,701,701,0,0,0,0,5,12768
5,0,0,701,701,0,0,0,0,5,8908
5,0,0,701,701,0,0,0,0,5,7869
5,0,0,701,701,0,0,0,0,5,5835
5,0,0,701,701,0,0,0,0,5,5626
5,0,0,701,701,0,0,0,0,5,5586
5,0,0,701,701,0,0,0,0,5,5598
5,0,0,701,701,0,0,0,0,5,5565
5,0,0,701,701,0,0,0,0,5,5582
5,0,0,701,701,0,0,0,0,5,5784
5,0,0,701,701,0,0,0,0,5,5564
5,0,0,701,701,0,0,0,0,5,5536
5,0,0,701,701,0,0,0,0,5,5563
5,0,0,701,701,0,0,0,0,5,5579
5,0,0,701,701,0,0,0,0,5,5513
5,0,0,701,701,0,0,0,0,5,5605
5,0,0,701,701,0,0,0,0,5,5567
5,0,0,701,701,0,0,0,0,5,5704
5,0,0,701,701,0,0,0,0,5,5511
5,0,0,701,701,0,0,0,0,5,5640
5,0,0,701,701,0,0,0,0,5,5891
5,0,0,701,701,0,0,0,0,5,5490
5,0,0,701,701,0,0,0,0,5,5661
5,0,0,701,701,0,0,0,0,5,5539
5,0,0,701,701,0,0,0,0,5,5501
5,0,0,701,701,0,0,0,0,5,5539
5,0,0,701,701,0,0,0,0,5,5538
5,0,0,701,701,0,0,0,0,5,5552
5,0,0,701,701,0,0,0,0,5,5535
5,0,0,701,701,0,0,0,0,5,5639
5,0,0,701,701,0,0,0,0,5,5625
5,0,0,701,701,0,0,0,0,5,5553
5,0,0,701,701,0,0,0,0,5,5520
5,0,0,701,701,0,0,0,0,5,5564
5,0,0,701,701,0,0,0,0,5,5525
5,0,0,701,701,0,0,0,0,5,5560
5,0,0,701,701,0,0,0,0,5,5635
5,0,0,701,701,0,0,0,0,5,5535
5,0,0,701,701,0,0,0,0,5,5653
5,0,0,701,701,0,0,0,0,5,5672
5,0,0,701,701,0,0,0,0,5,5567
5,0,0,701,701,0,0,0,0,5,5540
5,0,0,701,701,0,0,0,0,5,5461
5,0,0,701,701,0,0,0,0,5,5553
5,0,0,701,701,0,0,0,0,5,5538
5,0,0,701,701,0,0,0,0,5,5509
5,0,0,701,701,0,0,0,0,5,5591
5,0,0,701,701,0,0,0,0,5,5502
5,0,0,701,701,0,0,0,0,5,5521
5,0,0,701,701,0,0,0,0,5,5489
5,0,0,701,701,0,0,0,0,5,5512
5,0,0,701,701,0,0,0,0,5,5521
5,0,0,701,701,0,0,0,0,5,5535
5,0,0,701,701,0,0,0,0,5,5494
5,0,0,701,701,0,0,0,0,5,5531
5,0,0,701,701,0,0,0,0,5,5578
5,0,0,701,701,0,0,0,0,5,5488
5,0,0,701,701,0,0,0,0,5,5473
5,0,0,701,701,0,0,0,0,5,5526
5,0,0,701,701,0,0,0,0,5,5549
1,5,6,685,564,1,0,0,0,3,5073
1,5,6,685,564,1,0,0,0,3,4198
1,5,6,685,564,1,0,0,0,3,2638
1,5,6,685,564,1,0,0,0,3,2382
1,5,6,685,564,1,0,0,0,3,2323
1,5,6,685,564,1,0,0,0,3,2316
1,5,6,685,564,1,0,0,0,3,2318
1,5,6,685,564,1,0,0,0,3,2300
1,5,6,685,564,1,0,0,0,3,2296
1,5,6,685,564,1,0,0,0,3,2291
1,5,6,685,564,1,0,0,0,3,2285
1,5,6,685,564,1,0,0,0,3,2261
1,5,6,685,564,1,0,0,0,3,2291
1,5,6,685,564,1,0,0,0,3,2266
1,5,6,685,564,1,0,0,0,3,2299
1,5,6,685,564,1,0,0,0,3,2277
1,5,6,685,564,1,0,0,0,3,2290
1,5,6,685,564,1,0,0,0,3,2278
1,5,6,685,564,1,0,0,0,3,2280
1,5,6,685,564,1,0,0,0,3,2271
1,5,6,685,564,1,0,0,0,3,2328
1,5,6,685,564,1,0,0,0,3,2307
1,5,6,685,564,1,0,0,0,3,2289
1,5,6,685,564,1,0,0,0,3,2235
1,5,6,685,564,1,0,0,0,3,2275
1,5,6,685,564,1,0,0,0,3,2486
1,5,6,685,564,1,0,0,0,3,2246
1,5,6,685,564,1,0,0,0,3,2268
1,5,6,685,564,1,0,0,0,3,2308
1,5,6,685,564,1,0,0,0,3,2302
1,5,6,685,564,1,0,0,0,3,2196
1,5,6,685,564,1,0,0,0,3,2290
1,5,6,685,564,1,0,0,0,3,2195
1,5,6,685,564,1,0,0,0,3,2384
1,5,6,685,564,1,0,0,0,3,2226
1,5,6,685,564,1,0,0,0,3,2268
1,5,6,685,564,1,0,0,0,3,2202
1,5,6,685,564,1,0,0,0,3,2233
1,5,6,685,564,1,0,0,0,3,2287
1,5,6,685,564,1,0,0,0,3,2249
1,5,6,685,564,1,0,0,0,3,2443
1,5,6,685,564,1,0,0,0,3,2276
1,5,6,685,564,1,0,0,0,3,2669
1,5,6,685,564,1,0,0,0,3,2318
1,5,6,685,564,1,0,0,0,3,2354
1,5,6,685,564,1,0,0,0,3,2479
1,5,6,685,564,1,0,0,0,3,2570
1,5,6,685,564,1,0,0,0,3,2424
1,5,6,685,564,1,0,0,0,3,2451
1,5,6,685,564,1,0,0,0,3,2507
1,5,6,685,564,1,0,0,0,3,2238
1,5,6,685,564,1,0,0,0,3,2409
1,5,6,685,564,1,0,0,0,3,2266
1,5,6,685,564,1,0,0,0,3,2306
1,5,6,685,564,1,0,0,0,3,2295
1,5,6,685,564,1,0,0,0,3,2266
1,5,6,685,564,1,0,0,0,3,2281
1,5,6,685,564,1,0,0,0,3,2268
1,5,6,685,564,1,0,0,0,3,2267
1,5,6,685,564,1,0,0,0,3,2284
1,5,6,685,564,1,0,0,0,3,2251
1,5,6,685,564,1,0,0,0,3,2239
1,5,6,685,564,1,0,0,0,3,2236
1,5,6,685,564,1,0,0,0,3,2258
1,5,6,685,564,1,0,0,0,3,2238
1,5,6,685,564,1,0,0,0,3,2366
1,5,6,685,564,1,0,0,0,3,2308
1,5,6,685,564,1,0,0,0,3,2290
1,5,6,685,564,1,0,0,0,3,2414
1,5,6,685,564,1,0,0,0,3,2379
1,5,6,685,564,1,0,0,0,3,2317
1,5,6,685,564,1,0,0,0,3,2396
1,5,6,685,564,1,0,0,0,3,2269
1,5,6,685,564,1,0,0,0,3,2259
1,5,6,685,564,1,0,0,0,3,2311
1,5,6,685,564,1,0,0,0,3,2268
1,5,6,685,564,1,0,0,0,3,2301
1,5,6,685,564,1,0,0,0,3,2271
1,5,6,685,564,1,0,0,0,3,2352
1,5,6,685,564,1,0,0,0,3,2323
1,5,6,685,564,1,0,0,0,3,2248
1,5,6,685,564,1,0,0,0,3,2252
1,5,6,685,564,1,0,0,0,3,2276
1,5,6,685,564,1,0,0,0,3,2325
1,5,6,685,564,1,0,0,0,3,2206
1,5,6,685,564,1,0,0,0,3,2280
1,5,6,685,564,1,0,0,0,3,2314
1,5,6,685,564,1,0,0,0,3,2321
1,5,6,685,564,1,0,0,0,3,2437
1,5,6,685,564,1,0,0,0,3,2298
1,5,6,685,564,1,0,0,0,3,2373
1,5,6,685,564,1,0,0,0,3,2178
1,5,6,685,564,1,0,0,0,3,2239
1,5,6,685,564,1,0,0,0,3,2304
1,5,6,685,564,1,0,0,0,3,2232
1,5,6,685,564,1,0,0,0,3,2293
1,5,6,685,564,1,0,0,0,3,2278
1,5,6,685,564,1,0,0,0,3,2165
1,5,6,685,564,1,0,0,0,3,2280
1,5,6,685,564,1,0,0,0,3,2231
4,3,3,1324,955,1,0,0,0,5,10242
4,3,3,1324,955,1,0,0,0,5,6668
4,3,3,1324,955,1,0,0,0,5,6033
4,3,3,1324,955,1,0,0,0,5,5905
4,3,3,1324,955,1,0,0,0,5,5767
4,3,3,1324,955,1,0,0,0,5,5748
4,3,3,1324,955,1,0,0,0,5,5811
4,3,3,1324,955,1,0,0,0,5,5801
4,3,3,1324,955,1,0,0,0,5,5850
4,3,3,1324,955,1,0,0,0,5,5777
4,3,3,1324,955,1,0,0,0,5,5864
4,3,3,1324,955,1,0,0,0,5,5776
4,3,3,1324,955,1,0,0,0,5,5819
4,3,3,1324,955,1,0,0,0,5,6089
4,3,3,1324,955,1,0,0,0,5,5722
4,3,3,1324,955,1,0,0,0,5,5896
4,3,3,1324,955,1,0,0,0,5,5739
4,3,3,1324,955,1,0,0,0,5,5869
4,3,3,1324,955,1,0,0,0,5,5894
4,3,3,1324,955,1,0,0,0,5,5796
4,3,3,1324,955,1,0,0,0,5,5833
4,3,3,1324,955,1,0,0,0,5,5850
4,3,3,1324,955,1,0,0,0,5,5748
4,3,3,1324,955,1,0,0,0,5,5720
4,3,3,1324,955,1,0,0,0,5,5747
4,3,3,1324,955,1,0,0,0,5,5757
4,3,3,1324,955,1,0,0,0,5,5816
4,3,3,1324,955,1,0,0,0,5,5803
4,3,3,1324,955,1,0,0,0,5,5718
4,3,3,1324,955,1,0,0,0,5,5795
4,3,3,1324,955,1,0,0,0,5,5921
4,3,3,1324,955,1,0,0,0,5,5746
4,3,3,1324,955,1,0,0,0,5,5752
4,3,3,1324,955,1,0,0,0,5,5712
4,3,3,1324,955,1,0,0,0,5,5853
4,3,3,1324,955,1,0,0,0,5,5758
4,3,3,1324,955,1,0,0,0,5,5733
4,3,3,1324,955,1,0,0,0,5,5814
4,3,3,1324,955,1,0,0,0,5,5835
4,3,3,1324,955,1,0,0,0,5,5724
4,3,3,1324,955,1,0,0,0,5,5785
4,3,3,1324,955,1,0,0,0,5,5722
4,3,3,1324,955,1,0,0,0,5,5822
4,3,3,1324,955,1,0,0,0,5,5785
4,3,3,1324,955,1,0,0,0,5,5786
4,3,3,1324,955,1,0,0,0,5,5708
4,3,3,1324,955,1,0,0,0,5,5911
4,3,3,1324,955,1,0,0,0,5,5743
4,3,3,1324,955,1,0,0,0,5,6331
4,3,3,1324,955,1,0,0,0,5,5676
4,3,3,1324,955,1,0,0,0,5,5747
4,3,3,1324,955,1,0,0,0,5,5700
4,3,3,1324,955,1,0,0,0,5,5844
4,3,3,1324,955,1,0,0,0,5,5817
4,3,3,1324,955,1,0,0,0,5,5696
4,3,3,1324,955,1,0,0,0,5,5802
4,3,3,1324,955,1,0,0,0,5,5694
4,3,3,1324,955,1,0,0,0,5,5706
4,3,3,1324,955,1,0,0,0,5,5671
4,3,3,1324,955,1,0,0,0,5,5862
4,3,3,1324,955,1,0,0,0,5,5796
4,3,3,1324,955,1,0,0,0,5,16744
4,3,3,1324,955,1,0,0,0,5,6156
4,3,3,1324,955,1,0,0,0,5,6170
4,3,3,1324,955,1,0,0,0,5,6436
4,3,3,1324,955,1,0,0,0,5,6210
4,3,3,1324,955,1,0,0,0,5,6554
4,3,3,1324,955,1,0,0,0,5,16325
4,3,3,1324,955,1,0,0,0,5,5755
4,3,3,1324,955,1,0,0,0,5,5747
4,3,3,1324,955,1,0,0,0,5,5701
4,3,3,1324,955,1,0,0,0,5,5738
4,3,3,1324,955,1,0,0,0,5,5807
4,3,3,1324,955,1,0,0,0,5,5689
4,3,3,1324,955,1,0,0,0,5,5887
4,3,3,1324,955,1,0,0,0,5,5771
4,3,3,1324,955,1,0,0,0,5,5673
4,3,3,1324,955,1,0,0,0,5,5688
4,3,3,1324,955,1,0,0,0,5,5921
4,3,3,1324,955,1,0,0,0,5,5657
4,3,3,1324,955,1,0,0,0,5,5792
4,3,3,1324,955,1,0,0,0,5,5636
4,3,3,1324,955,1,0,0,0,5,5718
4,3,3,1324,955,1,0,0,0,5,5668
4,3,3,1324,955,1,0,0,0,5,5693
4,3,3,1324,955,1,0,0,0,5,5770
4,3,3,1324,955,1,0,0,0,5,5801
4,3,3,1324,955,1,0,0,0,5,5995
4,3,3,1324,955,1,0,0,0,5,5696
4,3,3,1324,955,1,0,0,0,5,5972
4,3,3,1324,955,1,0,0,0,5,6032
4,3,3,1324,955,1,0,0,0,5,5744
4,3,3,1324,955,1,0,0,0,5,5739
4,3,3,1324,955,1,0,0,0,5,5834
4,3,3,1324,955,1,0,0,0,5,5738
4,3,3,1324,955,1,0,0,0,5,5639
4,3,3,1324,955,1,0,0,0,5,5952
4,3,3,1324,955,1,0,0,0,5,16505
4,3,3,1324,955,1,0,0,0,5,6274
4,3,3,1324,955,1,0,0,0,5,9761
6,2,2,1323,1323,0,0,0,0,7,19903
6,2,2,1323,1323,0,0,0,0,7,18940
6,2,2,1323,1323,0,0,0,0,7,18913
6,2,2,1323,1323,0,0,0,0,7,19143
6,2,2,1323,1323,0,0,0,0,7,19006
6,2,2,1323,1323,0,0,0,0,7,19159
6,2,2,1323,1323,0,0,0,0,7,18991
6,2,2,1323,1323,0,0,0,0,7,19062
6,2,2,1323,1323,0,0,0,0,7,18203
6,2,2,1323,1323,0,0,0,0,7,16589
6,2,2,1323,1323,0,0,0,0,7,16077
6,2,2,1323,1323,0,0,0,0,7,16788
6,2,2,1323,1323,0,0,0,0,7,17169
6,2,2,1323,1323,0,0,0,0,7,18896
6,2,2,1323,1323,0,0,0,0,7,18186
6,2,2,1323,1323,0,0,0,0,7,29424
6,2,2,1323,1323,0,0,0,0,7,18508
6,2,2,1323,1323,0,0,0,0,7,17962
6,2,2,1323,1323,0,0,0,0,7,16985
6,2,2,1323,1323,0,0,0,0,7,16001
6,2,2,1323,1323,0,0,0,0,7,18009
6,2,2,1323,1323,0,0,0,0,7,18297
6,2,2,1323,1323,0,0,0,0,7,18079
6,2,2,1323,1323,0,0,0,0,7,17949
6,2,2,1323,1323,0,0,0,0,7,15814
6,2,2,1323,1323,0,0,0,0,7,15855
6,2,2,1323,1323,0,0,0,0,7,15246
6,2,2,1323,1323,0,0,0,0,7,15012
6,2,2,1323,1323,0,0,0,0,7,15659
6,2,2,1323,1323,0,0,0,0,7,15340
6,2,2,1323,1323,0,0,0,0,7,15721
6,2,2,1323,1323,0,0,0,0,7,16157
6,2,2,1323,1323,0,0,0,0,7,16283
6,2,2,1323,1323,0,0,0,0,7,15966
6,2,2,1323,1323,0,0,0,0,7,15733
6,2,2,1323,1323,0,0,0,0,7,16658
6,2,2,1323,1323,0,0,0,0,7,16375
6,2,2,1323,1323,0,0,0,0,7,17329
6,2,2,1323,1323,0,0,0,0,7,16948
6,2,2,1323,1323,0,0,0,0,7,17377
6,2,2,1323,1323,0,0,0,0,7,16754
6,2,2,1323,1323,0,0,0,0,7,17466
6,2,2,1323,1323,0,0,0,0,7,17357
6,2,2,1323,1323,0,0,0,0,7,16953
6,2,2,1323,1323,0,0,0,0,7,17644
6,2,2,1323,1323,0,0,0,0,7,16667
6,2,2,1323,1323,0,0,0,0,7,16544
6,2,2,1323,1323,0,0,0,0,7,16025
6,2,2,1323,1323,0,0,0,0,7,26806
6,2,2,1323,1323,0,0,0,0,7,17918
6,2,2,1323,1323,0,0,0,0,7,12040
6,2,2,1323,1323,0,0,0,0,7,11797
6,2,2,1323,1323,0,0,0,0,7,11841
6,2,2,1323,1323,0,0,0,0,7,12223
6,2,2,1323,1323,0,0,0,0,7,12604
6,2,2,1323,1323,0,0,0,0,7,11813
6,2,2,1323,1323,0,0,0,0,7,11980
6,2,2,1323,1323,0,0,0,0,7,11667
6,2,2,1323,1323,0,0,0,0,7,11858
6,2,2,1323,1323,0,0,0,0,7,16987
6,2,2,1323,1323,0,0,0,0,7,16315
6,2,2,1323,1323,0,0,0,0,7,11926
6,2,2,1323,1323,0,0,0,0,7,11933
6,2,2,1323,1323,0,0,0,0,7,12113
6,2,2,1323,1323,0,0,0,0,7,19967
6,2,2,1323,1323,0,0,0,0,7,11890
6,2,2,1323,1323,0,0,0,0,7,12157
6,2,2,1323,1323,0,0,0,0,7,11670
6,2,2,1323,1323,0,0,0,0,7,12135
6,2,2,1323,1323,0,0,0,0,7,12004
6,2,2,1323,1323,0,0,0,0,7,12128
6,2,2,1323,1323,0,0,0,0,7,18312
6,2,2,1323,1323,0,0,0,0,7,22753
6,2,2,1323,1323,0,0,0,0,7,11363
6,2,2,1323,1323,0,0,0,0,7,11155
6,2,2,1323,1323,0,0,0,0,7,11183
6,2,2,1323,1323,0,0,0,0,7,11039
6,2,2,1323,1323,0,0,0,0,7,11162
6,2,2,1323,1323,0,0,0,0,7,11025
6,2,2,1323,1323,0,0,0,0,7,11228
6,2,2,1323,1323,0,0,0,0,7,11031
6,2,2,1323,1323,0,0,0,0,7,11160
6,2,2,1323,1323,0,0,0,0,7,10978
6,2,2,1323,1323,0,0,0,0,7,11002
6,2,2,1323,1323,0,0,0,0,7,11125
6,2,2,1323,1323,0,0,0,0,7,11071
6,2,2,1323,1323,0,0,0,0,7,10996
6,2,2,1323,1323,0,0,0,0,7,11210
6,2,2,1323,1323,0,0,0,0,7,11209
6,2,2,1323,1323,0,0,0,0,7,11647
6,2,2,1323,1323,0,0,0,0,7,11030
6,2,2,1323,1323,0,0,0,0,7,10959
6,2,2,1323,1323,0,0,0,0,7,11329
6,2,2,1323,1323,0,0,0,0,7,11216
6,2,2,1323,1323,0,0,0,0,7,11055
6,2,2,1323,1323,0,0,0,0,7,10989
6,2,2,1323,1323,0,0,0,0,7,10851
6,2,2,1323,1323,0,0,0,0,7,11281
6,2,2,1323,1323,0,0,0,0,7,11218
6,2,2,1323,1323,0,0,0,0,7,11077
5,4,2,2028,1212,2,0,0,0,6,15773
5,4,2,2028,1212,2,0,0,0,6,10266
5,4,2,2028,1212,2,0,0,0,6,9273
5,4,2,2028,1212,2,0,0,0,6,9040
5,4,2,2028,1212,2,0,0,0,6,9086
5,4,2,2028,1212,2,0,0,0,6,9026
5,4,2,2028,1212,2,0,0,0,6,9174
5,4,2,2028,1212,2,0,0,0,6,9232
5,4,2,2028,1212,2,0,0,0,6,9253
5,4,2,2028,1212,2,0,0,0,6,9416
5,4,2,2028,1212,2,0,0,0,6,9188
5,4,2,2028,1212,2,0,0,0,6,9122
5,4,2,2028,1212,2,0,0,0,6,9358
5,4,2,2028,1212,2,0,0,0,6,9298
5,4,2,2028,1212,2,0,0,0,6,9210
5,4,2,2028,1212,2,0,0,0,6,9247
5,4,2,2028,1212,2,0,0,0,6,9072
5,4,2,2028,1212,2,0,0,0,6,8993
5,4,2,2028,1212,2,0,0,0,6,9133
5,4,2,2028,1212,2,0,0,0,6,9219
5,4,2,2028,1212,2,0,0,0,6,9602
5,4,2,2028,1212,2,0,0,0,6,9343
5,4,2,2028,1212,2,0,0,0,6,9129
5,4,2,2028,1212,2,0,0,0,6,8944
5,4,2,2028,1212,2,0,0,0,6,9070
5,4,2,2028,1212,2,0,0,0,6,9103
5,4,2,2028,1212,2,0,0,0,6,9143
5,4,2,2028,1212,2,0,0,0,6,9141
5,4,2,2028,1212,2,0,0,0,6,9174
5,4,2,2028,1212,2,0,0,0,6,9133
5,4,2,2028,1212,2,0,0,0,6,9097
5,4,2,2028,1212,2,0,0,0,6,8980
5,4,2,2028,1212,2,0,0,0,6,9149
5,4,2,2028,1212,2,0,0,0,6,9084
5,4,2,2028,1212,2,0,0,0,6,9367
5,4,2,2028,1212,2,0,0,0,6,9505
5,4,2,2028,1212,2,0,0,0,6,10655
5,4,2,2028,1212,2,0,0,0,6,9804
5,4,2,2028,1212,2,0,0,0,6,9718
5,4,2,2028,1212,2,0,0,0,6,9697
5,4,2,2028,1212,2,0,0,0,6,9695
5,4,2,2028,1212,2,0,0,0,6,9673
5,4,2,2028,1212,2,0,0,0,6,9747
5,4,2,2028,1212,2,0,0,0,6,9538
5,4,2,2028,1212,2,0,0,0,6,9510
5,4,2,2028,1212,2,0,0,0,6,9594
5,4,2,2028,1212,2,0,0,0,6,9703
5,4,2,2028,1212,2,0,0,0,6,9632
5,4,2,2028,1212,2,0,0,0,6,9998
5,4,2,2028,1212,2,0,0,0,6,9913
5,4,2,2028,1212,2,0,0,0,6,9940
5,4,2,2028,1212,2,0,0,0,6,9466
5,4,2,2028,1212,2,0,0,0,6,9671
5,4,2,2028,1212,2,0,0,0,6,9512
5,4,2,2028,1212,2,0,0,0,6,9720
5,4,2,2028,1212,2,0,0,0,6,9526
5,4,2,2028,1212,2,0,0,0,6,9629
5,4,2,2028,1212,2,0,0,0,6,9735
5,4,2,2028,1212,2,0,0,0,6,9561
5,4,2,2028,1212,2,0,0,0,6,9670
5,4,2,2028,1212,2,0,0,0,6,9788
5,4,2,2028,1212,2,0,0,0,6,9624
5,4,2,2028,1212,2,0,0,0,6,9731
5,4,2,2028,1212,2,0,0,0,6,10009
5,4,2,2028,1212,2,0,0,0,6,9812
5,4,2,2028,1212,2,0,0,0,6,9637
5,4,2,2028,1212,2,0,0,0,6,9682
5,4,2,2028,1212,2,0,0,0,6,9546
5,4,2,2028,1212,2,0,0,0,6,9702
5,4,2,2028,1212,2,0,0,0,6,9820
5,4,2,2028,1212,2,0,0,0,6,9755
5,4,2,2028,1212,2,0,0,0,6,9938
5,4,2,2028,1212,2,0,0,0,6,9562
5,4,2,2028,1212,2,0,0,0,6,9864
5,4,2,2028,1212,2,0,0,0,6,9784
5,4,2,2028,1212,2,0,0,0,6,9737
5,4,2,2028,1212,2,0,0,0,6,9761
5,4,2,2028,1212,2,0,0,0,6,9885
5,4,2,2028,1212,2,0,0,0,6,9477
5,4,2,2028,1212,2,0,0,0,6,9492
5,4,2,2028,1212,2,0,0,0,6,9924
5,4,2,2028,1212,2,0,0,0,6,9514
5,4,2,2028,1212,2,0,0,0,6,9756
5,4,2,2028,1212,2,0,0,0,6,9662
5,4,2,2028,1212,2,0,0,0,6,9512
5,4,2,2028,1212,2,0,0,0,6,9639
5,4,2,2028,1212,2,0,0,0,6,9521
5,4,2,2028,1212,2,0,0,0,6,9706
5,4,2,2028,1212,2,0,0,0,6,9464
5,4,2,2028,1212,2,0,0,0,6,9817
5,4,2,2028,1212,2,0,0,0,6,9617
5,4,2,2028,1212,2,0,0,0,6,9907
5,4,2,2028,1212,2,0,0,0,6,9770
5,4,2,2028,1212,2,0,0,0,6,9827
5,4,2,2028,1212,2,0,0,0,6,9781
5,4,2,2028,1212,2,0,0,0,6,9771
5,4,2,2028,1212,2,0,0,0,6,9753
5,4,2,2028,1212,2,0,0,0,6,15414
5,4,2,2028,1212,2,0,0,0,6,15096
5,4,2,2028,1212,2,0,0,0,6,10394
10,0,0,1307,1307,0,0,0,0,10,33201
10,0,0,1307,1307,0,0,0,0,10,25782
10,0,0,1307,1307,0,0,0,0,10,36313
10,0,0,1307,1307,0,0,0,0,10,23584
10,0,0,1307,1307,0,0,0,0,10,23396
10,0,0,1307,1307,0,0,0,0,10,23268
10,0,0,1307,1307,0,0,0,0,10,23469
10,0,0,1307,1307,0,0,0,0,10,23191
10,0,0,1307,1307,0,0,0,0,10,23238
10,0,0,1307,1307,0,0,0,0,10,23583
10,0,0,1307,1307,0,0,0,0,10,23533
10,0,0,1307,1307,0,0,0,0,10,24039
10,0,0,1307,1307,0,0,0,0,10,23898
10,0,0,1307,1307,0,0,0,0,10,24176
10,0,0,1307,1307,0,0,0,0,10,23373
10,0,0,1307,1307,0,0,0,0,10,23983
10,0,0,1307,1307,0,0,0,0,10,23832
10,0,0,1307,1307,0,0,0,0,10,24814
10,0,0,1307,1307,0,0,0,0,10,25342
10,0,0,1307,1307,0,0,0,0,10,25879
10,0,0,1307,1307,0,0,0,0,10,23713
10,0,0,1307,1307,0,0,0,0,10,24321
10,0,0,1307,1307,0,0,0,0,10,23513
10,0,0,1307,1307,0,0,0,0,10,24278
10,0,0,1307,1307,0,0,0,0,10,24882
10,0,0,1307,1307,0,0,0,0,10,24269
10,0,0,1307,1307,0,0,0,0,10,24507
10,0,0,1307,1307,0,0,0,0,10,23987
10,0,0,1307,1307,0,0,0,0,10,24510
10,0,0,1307,1307,0,0,0,0,10,24015
10,0,0,1307,1307,0,0,0,0,10,24116
10,0,0,1307,1307,0,0,0,0,10,24153
10,0,0,1307,1307,0,0,0,0,10,25525
10,0,0,1307,1307,0,0,0,0,10,24360
10,0,0,1307,1307,0,0,0,0,10,23719
10,0,0,1307,1307,0,0,0,0,10,24054
10,0,0,1307,1307,0,0,0,0,10,26541
10,0,0,1307,1307,0,0,0,0,10,24013
10,0,0,1307,1307,0,0,0,0,10,23647
10,0,0,1307,1307,0,0,0,0,10,23735
10,0,0,1307,1307,0,0,0,0,10,24331
10,0,0,1307,1307,0,0,0,0,10,23959
10,0,0,1307,1307,0,0,0,0,10,24708
10,0,0,1307,1307,0,0,0,0,10,23593
10,0,0,1307,1307,0,0,0,0,10,23749
10,0,0,1307,1307,0,0,0,0,10,24170
10,0,0,1307,1307,0,0,0,0,10,24311
10,0,0,1307,1307,0,0,0,0,10,24516
10,0,0,1307,1307,0,0,0,0,10,23842
10,0,0,1307,1307,0,0,0,0,10,24018
10,0,0,1307,1307,0,0,0,0,10,23612
10,0,0,1307,1307,0,0,0,0,10,25217
10,0,0,1307,1307,0,0,0,0,10,25107
10,0,0,1307,1307,0,0,0,0,10,25416
10,0,0,1307,1307,0,0,0,0,10,24618
10,0,0,1307,1307,0,0,0,0,10,23996
10,0,0,1307,1307,0,0,0,0,10,23759
10,0,0,1307,1307,0,0,0,0,10,36564
10,0,0,1307,1307,0,0,0,0,10,26738
10,0,0,1307,1307,0,0,0,0,10,25877
10,0,0,1307,1307,0,0,0,0,10,26258
10,0,0,1307,1307,0,0,0,0,10,25040
10,0,0,1307,1307,0,0,0,0,10,24023
10,0,0,1307,1307,0,0,0,0,10,24470
10,0,0,1307,1307,0,0,0,0,10,23490
10,0,0,1307,1307,0,0,0,0,10,24410
10,0,0,1307,1307,0,0,0,0,10,24131
10,0,0,1307,1307,0,0,0,0,10,23880
10,0,0,1307,1307,0,0,0,0,10,24312
10,0,0,1307,1307,0,0,0,0,10,24108
10,0,0,1307,1307,0,0,0,0,10,24444
10,0,0,1307,1307,0,0,0,0,10,24093
10,0,0,1307,1307,0,0,0,0,10,23965
10,0,0,1307,1307,0,0,0,0,10,23631
10,0,0,1307,1307,0,0,0,0,10,24019
10,0,0,1307,1307,0,0,0,0,10,23916
10,0,0,1307,1307,0,0,0,0,10,24728
10,0,0,1307,1307,0,0,0,0,10,24038
10,0,0,1307,1307,0,0,0,0,10,24253
10,0,0,1307,1307,0,0,0,0,10,24403
10,0,0,1307,1307,0,0,0,0,10,25511
10,0,0,1307,1307,0,0,0,0,10,36868
10,0,0,1307,1307,0,0,0,0,10,40729
10,0,0,1307,1307,0,0,0,0,10,25096
10,0,0,1307,1307,0,0,0,0,10,28858
10,0,0,1307,1307,0,0,0,0,10,26446
10,0,0,1307,1307,0,0,0,0,10,34455
10,0,0,1307,1307,0,0,0,0,10,23390
10,0,0,1307,1307,0,0,0,0,10,23463
10,0,0,1307,1307,0,0,0,0,10,23517
10,0,0,1307,1307,0,0,0,0,10,23115
10,0,0,1307,1307,0,0,0,0,10,23180
10,0,0,1307,1307,0,0,0,0,10,23138
10,0,0,1307,1307,0,0,0,0,10,23474
10,0,0,1307,1307,0,0,0,0,10,23411
10,0,0,1307,1307,0,0,0,0,10,23330
10,0,0,1307,1307,0,0,0,0,10,23451
10,0,0,1307,1307,0,0,0,0,10,23638
10,0,0,1307,1307,0,0,0,0,10,23554
10,0,0,1307,1307,0,0,0,0,10,23303
2,9,13,2775,1349,10,0,0,0,7,35799
2,9,13,2775,1349,10,0,0,0,7,23503
2,9,13,2775,1349,10,0,0,0,7,22773
2,9,13,2775,1349,10,0,0,0,7,22894
2,9,13,2775,1349,10,0,0,0,7,22288
2,9,13,2775,1349,10,0,0,0,7,22362
2,9,13,2775,1349,10,0,0,0,7,22034
2,9,13,2775,1349,10,0,0,0,7,22283
2,9,13,2775,1349,10,0,0,0,7,22458
2,9,13,2775,1349,10,0,0,0,7,22771
2,9,13,2775,1349,10,0,0,0,7,23078
2,9,13,2775,1349,10,0,0,0,7,22752
2,9,13,2775,1349,10,0,0,0,7,22243
2,9,13,2775,1349,10,0,0,0,7,22391
2,9,13,2775,1349,10,0,0,0,7,22372
2,9,13,2775,1349,10,0,0,0,7,22469
2,9,13,2775,1349,10,0,0,0,7,22767
2,9,13,2775,1349,10,0,0,0,7,22365
2,9,13,2775,1349,10,0,0,0,7,22273
2,9,13,2775,1349,10,0,0,0,7,22473
2,9,13,2775,1349,10,0,0,0,7,22271
2,9,13,2775,1349,10,0,0,0,7,22484
2,9,13,2775,1349,10,0,0,0,7,21976
2,9,13,2775,1349,10,0,0,0,7,22062
2,9,13,2775,1349,10,0,0,0,7,22160
2,9,13,2775,1349,10,0,0,0,7,22664
2,9,13,2775,1349,10,0,0,0,7,22176
2,9,13,2775,1349,10,0,0,0,7,22244
2,9,13,2775,1349,10,0,0,0,7,22375
2,9,13,2775,1349,10,0,0,0,7,22384
2,9,13,2775,1349,10,0,0,0,7,22914
2,9,13,2775,1349,10,0,0,0,7,22663
2,9,13,2775,1349,10,0,0,0,7,21917
2,9,13,2775,1349,10,0,0,0,7,22146
2,9,13,2775,1349,10,0,0,0,7,21992
2,9,13,2775,1349,10,0,0,0,7,22369
2,9,13,2775,1349,10,0,0,0,7,22270
2,9,13,2775,1349,10,0,0,0,7,22079
2,9,13,2775,1349,10,0,0,0,7,22185
2,9,13,2775,1349,10,0,0,0,7,22000
2,9,13,2775,1349,10,0,0,0,7,21989
2,9,13,2775,1349,10,0,0,0,7,22068
2,9,13,2775,1349,10,0,0,0,7,22294
2,9,13,2775,1349,10,0,0,0,7,22644
2,9,13,2775,1349,10,0,0,0,7,22284
2,9,13,2775,1349,10,0,0,0,7,22173
2,9,13,2775,1349,10,0,0,0,7,22320
2,9,13,2775,1349,10,0,0,0,7,22233
2,9,13,2775,1349,10,0,0,0,7,22209
2,9,13,2775,1349,10,0,0,0,7,22875
2,9,13,2775,1349,10,0,0,0,7,22616
2,9,13,2775,1349,10,0,0,0,7,22145
2,9,13,2775,1349,10,0,0,0,7,22554
2,9,13,2775,1349,10,0,0,0,7,22536
2,9,13,2775,1349,10,0,0,0,7,22154
2,9,13,2775,1349,10,0,0,0,7,22121
2,9,13,2775,1349,10,0,0,0,7,22364
2,9,13,2775,1349,10,0,0,0,7,22254
2,9,13,2775,1349,10,0,0,0,7,22437
2,9,13,2775,1349,10,0,0,0,7,22065
2,9,13,2775,1349,10,0,0,0,7,22009
2,9,13,2775,1349,10,0,0,0,7,22303
2,9,13,2775,1349,10,0,0,0,7,22216
2,9,13,2775,1349,10,0,0,0,7,22090
2,9,13,2775,1349,10,0,0,0,7,22113
2,9,13,2775,1349,10,0,0,0,7,22149
2,9,13,2775,1349,10,0,0,0,7,22317
2,9,13,2775,1349,10,0,0,0,7,22379
2,9,13,2775,1349,10,0,0,0,7,22085
2,9,13,2775,1349,10,0,0,0,7,22127
2,9,13,2775,1349,10,0,0,0,7,22105
2,9,13,2775,1349,10,0,0,0,7,22443
2,9,13,2775,1349,10,0,0,0,7,22422
2,9,13,2775,1349,10,0,0,0,7,22286
2,9,13,2775,1349,10,0,0,0,7,22353
2,9,13,2775,1349,10,0,0,0,7,22260
2,9,13,2775,1349,10,0,0,0,7,22476
2,9,13,2775,1349,10,0,0,0,7,22239
2,9,13,2775,1349,10,0,0,0,7,22125
2,9,13,2775,1349,10,0,0,0,7,22284
2,9,13,2775,1349,10,0,0,0,7,22317
2,9,13,2775,1349,10,0,0,0,7,22540
2,9,13,2775,1349,10,0,0,0,7,22351
2,9,13,2775,1349,10,0,0,0,7,22142
2,9,13,2775,1349,10,0,0,0,7,22457
2,9,13,2775,1349,10,0,0,0,7,22496
2,9,13,2775,1349,10,0,0,0,7,22383
2,9,13,2775,1349,10,0,0,0,7,22345
2,9,13,2775,1349,10,0,0,0,7,22914
2,9,13,2775,1349,10,0,0,0,7,22419
2,9,13,2775,1349,10,0,0,0,7,22473
2,9,13,2775,1349,10,0,0,0,7,22449
2,9,13,2775,1349,10,0,0,0,7,39025
2,9,13,2775,1349,10,0,0,0,7,23974
2,9,13,2775,1349,10,0,0,0,7,34063
2,9,13,2775,1349,10,0,0,0,7,23952
2,9,13,2775,1349,10,0,0,0,7,23527
2,9,13,2775,1349,10,0,0,0,7,33846
2,9,13,2775,1349,10,0,0,0,7,22443
2,9,13,2775,1349,10,0,0,0,7,22422
6,6,14,5542,1786,17,0,0,0,11,66324
6,6,14,5542,1786,17,0,0,0,11,63862
6,6,14,5542,1786,17,0,0,0,11,63475
6,6,14,5542,1786,17,0,0,0,11,63228
6,6,14,5542,1786,17,0,0,0,11,63511
6,6,14,5542,1786,17,0,0,0,11,63165
6,6,14,5542,1786,17,0,0,0,11,62746
6,6,14,5542,1786,17,0,0,0,11,63118
6,6,14,5542,1786,17,0,0,0,11,63346
6,6,14,5542,1786,17,0,0,0,11,63239
6,6,14,5542,1786,17,0,0,0,11,63514
6,6,14,5542,1786,17,0,0,0,11,63187
6,6,14,5542,1786,17,0,0,0,11,63236
6,6,14,5542,1786,17,0,0,0,11,63033
6,6,14,5542,1786,17,0,0,0,11,63141
6,6,14,5542,1786,17,0,0,0,11,62404
6,6,14,5542,1786,17,0,0,0,11,63363
6,6,14,5542,1786,17,0,0,0,11,62599
6,6,14,5542,1786,17,0,0,0,11,62373
6,6,14,5542,1786,17,0,0,0,11,62402
6,6,14,5542,1786,17,0,0,0,11,62890
6,6,14,5542,1786,17,0,0,0,11,63567
6,6,14,5542,1786,17,0,0,0,11,71864
6,6,14,5542,1786,17,0,0,0,11,63197
6,6,14,5542,1786,17,0,0,0,11,63537
6,6,14,5542,1786,17,0,0,0,11,63151
6,6,14,5542,1786,17,0,0,0,11,63014
6,6,14,5542,1786,17,0,0,0,11,62354
6,6,14,5542,1786,17,0,0,0,11,63510
6,6,14,5542,1786,17,0,0,0,11,63767
6,6,14,5542,1786,17,0,0,0,11,62839
6,6,14,5542,1786,17,0,0,0,11,63237
6,6,14,5542,1786,17,0,0,0,11,63486
6,6,14,5542,1786,17,0,0,0,11,63652
6,6,14,5542,1786,17,0,0,0,11,63283
6,6,14,5542,1786,17,0,0,0,11,63551
6,6,14,5542,1786,17,0,0,0,11,63203
6,6,14,5542,1786,17,0,0,0,11,63317
6,6,14,5542,1786,17,0,0,0,11,63918
6,6,14,5542,1786,17,0,0,0,11,63347
6,6,14,5542,1786,17,0,0,0,11,63448
6,6,14,5542,1786,17,0,0,0,11,63003
6,6,14,5542,1786,17,0,0,0,11,63508
6,6,14,5542,1786,17,0,0,0,11,63743
6,6,14,5542,1786,17,0,0,0,11,62403
6,6,14,5542,1786,17,0,0,0,11,63506
6,6,14,5542,1786,17,0,0,0,11,63197
6,6,14,5542,1786,17,0,0,0,11,85782
6,6,14,5542,1786,17,0,0,0,11,67864
6,6,14,5542,1786,17,0,0,0,11,67737
6,6,14,5542,1786,17,0,0,0,11,67763
6,6,14,5542,1786,17,0,0,0,11,66653
6,6,14,5542,1786,17,0,0,0,11,66706
6,6,14,5542,1786,17,0,0,0,11,71419
6,6,14,5542,1786,17,0,0,0,11,68408
6,6,14,5542,1786,17,0,0,0,11,67761
6,6,14,5542,1786,17,0,0,0,11,67545
6,6,14,5542,1786,17,0,0,0,11,67340
6,6,14,5542,1786,17,0,0,0,11,66735
6,6,14,5542,1786,17,0,0,0,11,67787
6,6,14,5542,1786,17,0,0,0,11,67631
6,6,14,5542,1786,17,0,0,0,11,68056
6,6,14,5542,1786,17,0,0,0,11,68105
6,6,14,5542,1786,17,0,0,0,11,67775
6,6,14,5542,1786,17,0,0,0,11,67181
6,6,14,5542,1786,17,0,0,0,11,67715
6,6,14,5542,1786,17,0,0,0,11,66707
6,6,14,5542,1786,17,0,0,0,11,66884
6,6,14,5542,1786,17,0,0,0,11,67697
6,6,14,5542,1786,17,0,0,0,11,67322
6,6,14,5542,1786,17,0,0,0,11,66604
6,6,14,5542,1786,17,0,0,0,11,66879
6,6,14,5542,1786,17,0,0,0,11,67473
6,6,14,5542,1786,17,0,0,0,11,67231
6,6,14,5542,1786,17,0,0,0,11,67492
6,6,14,5542,1786,17,0,0,0,11,67271
6,6,14,5542,1786,17,0,0,0,11,66982
6,6,14,5542,1786,17,0,0,0,11,67257
6,6,14,5542,1786,17,0,0,0,11,67331
6,6,14,5542,1786,17,0,0,0,11,69060
6,6,14,5542,1786,17,0,0,0,11,67323
6,6,14,5542,1786,17,0,0,0,11,68017
6,6,14,5542,1786,17,0,0,0,11,67273
6,6,14,5542,1786,17,0,0,0,11,67279
6,6,14,5542,1786,17,0,0,0,11,67576
6,6,14,5542,1786,17,0,0,0,11,102645
6,6,14,5542,1786,17,0,0,0,11,99101
6,6,14,5542,1786,17,0,0,0,11,108893
6,6,14,5542,1786,17,0,0,0,11,107526
6,6,14,5542,1786,17,0,0,0,11,102203
6,6,14,5542,1786,17,0,0,0,11,104840
6,6,14,5542,1786,17,0,0,0,11,105646
6,6,14,5542,1786,17,0,0,0,11,104220
6,6,14,5542,1786,17,0,0,0,11,80329
6,6,14,5542,1786,17,0,0,0,11,67505
6,6,14,5542,1786,17,0,0,0,11,67627
6,6,14,5542,1786,17,0,0,0,11,70270
6,6,14,5542,1786,17,0,0,0,11,70017
6,6,14,5542,1786,17,0,0,0,11,69534
6,6,14,5542,1786,17,0,0,0,11,67940
9,4,5,3132,1779,6,0,0,0,11,40359
9,4,5,3132,1779,6,0,0,0,11,39388
9,4,5,3132,1779,6,0,0,0,11,39318
9,4,5,3132,1779,6,0,0,0,11,54236
9,4,5,3132,1779,6,0,0,0,11,38535
9,4,5,3132,1779,6,0,0,0,11,38903
9,4,5,3132,1779,6,0,0,0,11,44436
9,4,5,3132,1779,6,0,0,0,11,42742
9,4,5,3132,1779,6,0,0,0,11,40888
9,4,5,3132,1779,6,0,0,0,11,41175
9,4,5,3132,1779,6,0,0,0,11,42829
9,4,5,3132,1779,6,0,0,0,11,43400
9,4,5,3132,1779,6,0,0,0,11,43871
9,4,5,3132,1779,6,0,0,0,11,41045
9,4,5,3132,1779,6,0,0,0,11,39602
9,4,5,3132,1779,6,0,0,0,11,56443
9,4,5,3132,1779,6,0,0,0,11,52637
9,4,5,3132,1779,6,0,0,0,11,53298
9,4,5,3132,1779,6,0,0,0,11,54407
9,4,5,3132,1779,6,0,0,0,11,53440
9,4,5,3132,1779,6,0,0,0,11,54745
9,4,5,3132,1779,6,0,0,0,11,59910
9,4,5,3132,1779,6,0,0,0,11,61299
9,4,5,3132,1779,6,0,0,0,11,58895
9,4,5,3132,1779,6,0,0,0,11,58244
9,4,5,3132,1779,6,0,0,0,11,59855
9,4,5,3132,1779,6,0,0,0,11,59123
9,4,5,3132,1779,6,0,0,0,11,54687
9,4,5,3132,1779,6,0,0,0,11,52858
9,4,5,3132,1779,6,0,0,0,11,39442
9,4,5,3132,1779,6,0,0,0,11,38015
9,4,5,3132,1779,6,0,0,0,11,43702
9,4,5,3132,1779,6,0,0,0,11,38044
9,4,5,3132,1779,6,0,0,0,11,41692
9,4,5,3132,1779,6,0,0,0,11,53376
9,4,5,3132,1779,6,0,0,0,11,50690
9,4,5,3132,1779,6,0,0,0,11,37918
9,4,5,3132,1779,6,0,0,0,11,37833
9,4,5,3132,1779,6,0,0,0,11,37994
9,4,5,3132,1779,6,0,0,0,11,38023
9,4,5,3132,1779,6,0,0,0,11,37866
9,4,5,3132,1779,6,0,0,0,11,37975
9,4,5,3132,1779,6,0,0,0,11,37743
9,4,5,3132,1779,6,0,0,0,11,38307
9,4,5,3132,1779,6,0,0,0,11,37664
9,4,5,3132,1779,6,0,0,0,11,37968
9,4,5,3132,1779,6,0,0,0,11,37701
9,4,5,3132,1779,6,0,0,0,11,38006
9,4,5,3132,1779,6,0,0,0,11,38481
9,4,5,3132,1779,6,0,0,0,11,37779
9,4,5,3132,1779,6,0,0,0,11,37557
9,4,5,3132,1779,6,0,0,0,11,37328
9,4,5,3132,1779,6,0,0,0,11,37732
9,4,5,3132,1779,6,0,0,0,11,37545
9,4,5,3132,1779,6,0,0,0,11,38219
9,4,5,3132,1779,6,0,0,0,11,38088
9,4,5,3132,1779,6,0,0,0,11,37827
9,4,5,3132,1779,6,0,0,0,11,37571
9,4,5,3132,1779,6,0,0,0,11,38305
9,4,5,3132,1779,6,0,0,0,11,50677
9,4,5,3132,1779,6,0,0,0,11,35864
9,4,5,3132,1779,6,0,0,0,11,35384
9,4,5,3132,1779,6,0,0,0,11,35266
9,4,5,3132,1779,6,0,0,0,11,35946
9,4,5,3132,1779,6,0,0,0,11,35513
9,4,5,3132,1779,6,0,0,0,11,35725
9,4,5,3132,1779,6,0,0,0,11,37029
9,4,5,3132,1779,6,0,0,0,11,36306
9,4,5,3132,1779,6,0,0,0,11,36059
9,4,5,3132,1779,6,0,0,0,11,37139
9,4,5,3132,1779,6,0,0,0,11,36952
9,4,5,3132,1779,6,0,0,0,11,37376
9,4,5,3132,1779,6,0,0,0,11,36673
9,4,5,3132,1779,6,0,0,0,11,37469
9,4,5,3132,1779,6,0,0,0,11,36285
9,4,5,3132,1779,6,0,0,0,11,38046
9,4,5,3132,1779,6,0,0,0,11,37062
9,4,5,3132,1779,6,0,0,0,11,37120
9,4,5,3132,1779,6,0,0,0,11,36233
9,4,5,3132,1779,6,0,0,0,11,36406
9,4,5,3132,1779,6,0,0,0,11,78397
9,4,5,3132,1779,6,0,0,0,11,39198
9,4,5,3132,1779,6,0,0,0,11,36354
9,4,5,3132,1779,6,0,0,0,11,36287
9,4,5,3132,1779,6,0,0,0,11,36711
9,4,5,3132,1779,6,0,0,0,11,36752
9,4,5,3132,1779,6,0,0,0,11,36511
9,4,5,3132,1779,6,0,0,0,11,37080
9,4,5,3132,1779,6,0,0,0,11,36213
9,4,5,3132,1779,6,0,0,0,11,36790
9,4,5,3132,1779,6,0,0,0,11,36591
9,4,5,3132,1779,6,0,0,0,11,38446
9,4,5,3132,1779,6,0,0,0,11,37029
9,4,5,3132,1779,6,0,0,0,11,36760
9,4,5,3132,1779,6,0,0,0,11,36952
9,4,5,3132,1779,6,0,0,0,11,36284
9,4,5,3132,1779,6,0,0,0,11,37353
9,4,5,3132,1779,6,0,0,0,11,37888
9,4,5,3132,1779,6,0,0,0,11,37323
9,4,5,3132,1779,6,0,0,0,11,36872
10,4,7,5373,2240,12,0,0,0,13,115554
10,4,7,5373,2240,12,0,0,0,13,87736
10,4,7,5373,2240,12,0,0,0,13,85866
10,4,7,5373,2240,12,0,0,0,13,85470
10,4,7,5373,2240,12,0,0,0,13,87664
10,4,7,5373,2240,12,0,0,0,13,107346
10,4,7,5373,2240,12,0,0,0,13,91584
10,4,7,5373,2240,12,0,0,0,13,84799
10,4,7,5373,2240,12,0,0,0,13,84455
10,4,7,5373,2240,12,0,0,0,13,85034
10,4,7,5373,2240,12,0,0,0,13,84882
10,4,7,5373,2240,12,0,0,0,13,85191
10,4,7,5373,2240,12,0,0,0,13,84965
10,4,7,5373,2240,12,0,0,0,13,84379
10,4,7,5373,2240,12,0,0,0,13,84395
10,4,7,5373,2240,12,0,0,0,13,84843
10,4,7,5373,2240,12,0,0,0,13,84492
10,4,7,5373,2240,12,0,0,0,13,83966
10,4,7,5373,2240,12,0,0,0,13,85203
10,4,7,5373,2240,12,0,0,0,13,85110
10,4,7,5373,2240,12,0,0,0,13,84717
10,4,7,5373,2240,12,0,0,0,13,84836
10,4,7,5373,2240,12,0,0,0,13,84787
10,4,7,5373,2240,12,0,0,0,13,84367
10,4,7,5373,2240,12,0,0,0,13,84444
10,4,7,5373,2240,12,0,0,0,13,85226
10,4,7,5373,2240,12,0,0,0,13,84668
10,4,7,5373,2240,12,0,0,0,13,84899
10,4,7,5373,2240,12,0,0,0,13,85040
10,4,7,5373,2240,12,0,0,0,13,84753
10,4,7,5373,2240,12,0,0,0,13,85182
10,4,7,5373,2240,12,0,0,0,13,116734
10,4,7,5373,2240,12,0,0,0,13,85394
10,4,7,5373,2240,12,0,0,0,13,84979
10,4,7,5373,2240,12,0,0,0,13,84776
10,4,7,5373,2240,12,0,0,0,13,84717
10,4,7,5373,2240,12,0,0,0,13,84543
10,4,7,5373,2240,12,0,0,0,13,84256
10,4,7,5373,2240,12,0,0,0,13,84903
10,4,7,5373,2240,12,0,0,0,13,85004
10,4,7,5373,2240,12,0,0,0,13,84353
10,4,7,5373,2240,12,0,0,0,13,84691
10,4,7,5373,2240,12,0,0,0,13,84631
10,4,7,5373,2240,12,0,0,0,13,85022
10,4,7,5373,2240,12,0,0,0,13,83946
10,4,7,5373,2240,12,0,0,0,13,85056
10,4,7,5373,2240,12,0,0,0,13,84655
10,4,7,5373,2240,12,0,0,0,13,84581
10,4,7,5373,2240,12,0,0,0,13,84440
10,4,7,5373,2240,12,0,0,0,13,84765
10,4,7,5373,2240,12,0,0,0,13,84875
10,4,7,5373,2240,12,0,0,0,13,85032
10,4,7,5373,2240,12,0,0,0,13,85011
10,4,7,5373,2240,12,0,0,0,13,84929
10,4,7,5373,2240,12,0,0,0,13,84941
10,4,7,5373,2240,12,0,0,0,13,84771
10,4,7,5373,2240,12,0,0,0,13,84203
10,4,7,5373,2240,12,0,0,0,13,84334
10,4,7,5373,2240,12,0,0,0,13,85316
10,4,7,5373,2240,12,0,0,0,13,84641
10,4,7,5373,2240,12,0,0,0,13,84542
10,4,7,5373,2240,12,0,0,0,13,84288
10,4,7,5373,2240,12,0,0,0,13,84931
10,4,7,5373,2240,12,0,0,0,13,85239
10,4,7,5373,2240,12,0,0,0,13,84287
10,4,7,5373,2240,12,0,0,0,13,84740
10,4,7,5373,2240,12,0,0,0,13,84430
10,4,7,5373,2240,12,0,0,0,13,84695
10,4,7,5373,2240,12,0,0,0,13,84869
10,4,7,5373,2240,12,0,0,0,13,84660
10,4,7,5373,2240,12,0,0,0,13,84754
10,4,7,5373,2240,12,0,0,0,13,84761
10,4,7,5373,2240,12,0,0,0,13,85303
10,4,7,5373,2240,12,0,0,0,13,84318
10,4,7,5373,2240,12,0,0,0,13,84734
10,4,7,5373,2240,12,0,0,0,13,101709
10,4,7,5373,2240,12,0,0,0,13,85028
10,4,7,5373,2240,12,0,0,0,13,84457
10,4,7,5373,2240,12,0,0,0,13,96779
10,4,7,5373,2240,12,0,0,0,13,97582
10,4,7,5373,2240,12,0,0,0,13,108880
10,4,7,5373,2240,12,0,0,0,13,84612
10,4,7,5373,2240,12,0,0,0,13,84316
10,4,7,5373,2240,12,0,0,0,13,84798
10,4,7,5373,2240,12,0,0,0,13,84615
10,4,7,5373,2240,12,0,0,0,13,84675
10,4,7,5373,2240,12,0,0,0,13,85539
10,4,7,5373,2240,12,0,0,0,13,84403
10,4,7,5373,2240,12,0,0,0,13,84600
10,4,7,5373,2240,12,0,0,0,13,85373
10,4,7,5373,2240,12,0,0,0,13,84930
10,4,7,5373,2240,12,0,0,0,13,84230
10,4,7,5373,2240,12,0,0,0,13,85212
10,4,7,5373,2240,12,0,0,0,13,84760
10,4,7,5373,2240,12,0,0,0,13,85059
10,4,7,5373,2240,12,0,0,0,13,84906
10,4,7,5373,2240,12,0,0,0,13,84791
10,4,7,5373,2240,12,0,0,0,13,84482
10,4,7,5373,2240,12,0,0,0,13,84360
10,4,7,5373,2240,12,0,0,0,13,84959
10,5,5,3397,1733,10,0,0,0,12,80389
10,5,5,3397,1733,10,0,0,0,12,74665
10,5,5,3397,1733,10,0,0,0,12,74544
10,5,5,3397,1733,10,0,0,0,12,74719
10,5,5,3397,1733,10,0,0,0,12,74448
10,5,5,3397,1733,10,0,0,0,12,74823
10,5,5,3397,1733,10,0,0,0,12,74249
10,5,5,3397,1733,10,0,0,0,12,74110
10,5,5,3397,1733,10,0,0,0,12,74662
10,5,5,3397,1733,10,0,0,0,12,74870
10,5,5,3397,1733,10,0,0,0,12,73968
10,5,5,3397,1733,10,0,0,0,12,73918
10,5,5,3397,1733,10,0,0,0,12,74992
10,5,5,3397,1733,10,0,0,0,12,74388
10,5,5,3397,1733,10,0,0,0,12,74675
10,5,5,3397,1733,10,0,0,0,12,74173
10,5,5,3397,1733,10,0,0,0,12,74015
10,5,5,3397,1733,10,0,0,0,12,73989
10,5,5,3397,1733,10,0,0,0,12,75278
10,5,5,3397,1733,10,0,0,0,12,119619
10,5,5,3397,1733,10,0,0,0,12,103709
10,5,5,3397,1733,10,0,0,0,12,86395
10,5,5,3397,1733,10,0,0,0,12,74316
10,5,5,3397,1733,10,0,0,0,12,74369
10,5,5,3397,1733,10,0,0,0,12,74235
10,5,5,3397,1733,10,0,0,0,12,74463
10,5,5,3397,1733,10,0,0,0,12,74257
10,5,5,3397,1733,10,0,0,0,12,74612
10,5,5,3397,1733,10,0,0,0,12,74156
10,5,5,3397,1733,10,0,0,0,12,74412
10,5,5,3397,1733,10,0,0,0,12,74681
10,5,5,3397,1733,10,0,0,0,12,74655
10,5,5,3397,1733,10,0,0,0,12,73849
10,5,5,3397,1733,10,0,0,0,12,74392
10,5,5,3397,1733,10,0,0,0,12,73881
10,5,5,3397,1733,10,0,0,0,12,74305
10,5,5,3397,1733,10,0,0,0,12,74723
10,5,5,3397,1733,10,0,0,0,12,74196
10,5,5,3397,1733,10,0,0,0,12,74653
10,5,5,3397,1733,10,0,0,0,12,74588
10,5,5,3397,1733,10,0,0,0,12,74379
10,5,5,3397,1733,10,0,0,0,12,74097
10,5,5,3397,1733,10,0,0,0,12,74542
10,5,5,3397,1733,10,0,0,0,12,74411
10,5,5,3397,1733,10,0,0,0,12,74197
10,5,5,3397,1733,10,0,0,0,12,74365
10,5,5,3397,1733,10,0,0,0,12,74864
10,5,5,3397,1733,10,0,0,0,12,75106
10,5,5,3397,1733,10,0,0,0,12,74175
10,5,5,3397,1733,10,0,0,0,12,74426
10,5,5,3397,1733,10,0,0,0,12,74398
10,5,5,3397,1733,10,0,0,0,12,74597
10,5,5,3397,1733,10,0,0,0,12,74338
10,5,5,3397,1733,10,0,0,0,12,73837
10,5,5,3397,1733,10,0,0,0,12,74362
10,5,5,3397,1733,10,0,0,0,12,74152
10,5,5,3397,1733,10,0,0,0,12,74367
10,5,5,3397,1733,10,0,0,0,12,74391
10,5,5,3397,1733,10,0,0,0,12,74183
10,5,5,3397,1733,10,0,0,0,12,74239
10,5,5,3397,1733,10,0,0,0,12,74323
10,5,5,3397,1733,10,0,0,0,12,74538
10,5,5,3397,1733,10,0,0,0,12,74457
10,5,5,3397,1733,10,0,0,0,12,74433
10,5,5,3397,1733,10,0,0,0,12,74307
10,5,5,3397,1733,10,0,0,0,12,74303
10,5,5,3397,1733,10,0,0,0,12,74470
10,5,5,3397,1733,10,0,0,0,12,74352
10,5,5,3397,1733,10,0,0,0,12,74387
10,5,5,3397,1733,10,0,0,0,12,93303
10,5,5,3397,1733,10,0,0,0,12,74822
10,5,5,3397,1733,10,0,0,0,12,74138
10,5,5,3397,1733,10,0,0,0,12,74411
10,5,5,3397,1733,10,0,0,0,12,74371
10,5,5,3397,1733,10,0,0,0,12,74483
10,5,5,3397,1733,10,0,0,0,12,74173
10,5,5,3397,1733,10,0,0,0,12,73975
10,5,5,3397,1733,10,0,0,0,12,74603
10,5,5,3397,1733,10,0,0,0,12,74517
10,5,5,3397,1733,10,0,0,0,12,74807
10,5,5,3397,1733,10,0,0,0,12,74616
10,5,5,3397,1733,10,0,0,0,12,74363
10,5,5,3397,1733,10,0,0,0,12,74520
10,5,5,3397,1733,10,0,0,0,12,74430
10,5,5,3397,1733,10,0,0,0,12,74284
10,5,5,3397,1733,10,0,0,0,12,73952
10,5,5,3397,1733,10,0,0,0,12,74584
10,5,5,3397,1733,10,0,0,0,12,73940
10,5,5,3397,1733,10,0,0,0,12,74113
10,5,5,3397,1733,10,0,0,0,12,73883
10,5,5,3397,1733,10,0,0,0,12,74609
10,5,5,3397,1733,10,0,0,0,12,74661
10,5,5,3397,1733,10,0,0,0,12,74137
10,5,5,3397,1733,10,0,0,0,12,74491
10,5,5,3397,1733,10,0,0,0,12,74662
10,5,5,3397,1733,10,0,0,0,12,74085
10,5,5,3397,1733,10,0,0,0,12,74518
10,5,5,3397,1733,10,0,0,0,12,74318
10,5,5,3397,1733,10,0,0,0,12,74365
10,5,5,3397,1733,10,0,0,0,12,74405
6,10,13,6664,2729,23,0,0,0,11,75316
6,10,13,6664,2729,23,0,0,0,11,72887
6,10,13,6664,2729,23,0,0,0,11,57281
6,10,13,6664,2729,23,0,0,0,11,56958
6,10,13,6664,2729,23,0,0,0,11,57906
6,10,13,6664,2729,23,0,0,0,11,56741
6,10,13,6664,2729,23,0,0,0,11,56829
6,10,13,6664,2729,23,0,0,0,11,56887
6,10,13,6664,2729,23,0,0,0,11,56666
6,10,13,6664,2729,23,0,0,0,11,56554
6,10,13,6664,2729,23,0,0,0,11,56778
6,10,13,6664,2729,23,0,0,0,11,56605
6,10,13,6664,2729,23,0,0,0,11,56843
6,10,13,6664,2729,23,0,0,0,11,57852
6,10,13,6664,2729,23,0,0,0,11,57606
6,10,13,6664,2729,23,0,0,0,11,57454
6,10,13,6664,2729,23,0,0,0,11,57787
6,10,13,6664,2729,23,0,0,0,11,57811
6,10,13,6664,2729,23,0,0,0,11,57402
6,10,13,6664,2729,23,0,0,0,11,57166
6,10,13,6664,2729,23,0,0,0,11,56533
6,10,13,6664,2729,23,0,0,0,11,56383
6,10,13,6664,2729,23,0,0,0,11,56725
6,10,13,6664,2729,23,0,0,0,11,61296
6,10,13,6664,2729,23,0,0,0,11,57798
6,10,13,6664,2729,23,0,0,0,11,57410
6,10,13,6664,2729,23,0,0,0,11,57060
6,10,13,6664,2729,23,0,0,0,11,57845
6,10,13,6664,2729,23,0,0,0,11,57150
6,10,13,6664,2729,23,0,0,0,11,56444
6,10,13,6664,2729,23,0,0,0,11,56958
6,10,13,6664,2729,23,0,0,0,11,57274
6,10,13,6664,2729,23,0,0,0,11,57877
6,10,13,6664,2729,23,0,0,0,11,57380
6,10,13,6664,2729,23,0,0,0,11,57402
6,10,13,6664,2729,23,0,0,0,11,57296
6,10,13,6664,2729,23,0,0,0,11,57182
6,10,13,6664,2729,23,0,0,0,11,56918
6,10,13,6664,2729,23,0,0,0,11,57102
6,10,13,6664,2729,23,0,0,0,11,56825
6,10,13,6664,2729,23,0,0,0,11,56363
6,10,13,6664,2729,23,0,0,0,11,56752
6,10,13,6664,2729,23,0,0,0,11,57215
6,10,13,6664,2729,23,0,0,0,11,57166
6,10,13,6664,2729,23,0,0,0,11,56635
6,10,13,6664,2729,23,0,0,0,11,57151
6,10,13,6664,2729,23,0,0,0,11,56780
6,10,13,6664,2729,23,0,0,0,11,57387
6,10,13,6664,2729,23,0,0,0,11,57268
6,10,13,6664,2729,23,0,0,0,11,57336
6,10,13,6664,2729,23,0,0,0,11,57415
6,10,13,6664,2729,23,0,0,0,11,57345
6,10,13,6664,2729,23,0,0,0,11,57284
6,10,13,6664,2729,23,0,0,0,11,66262
6,10,13,6664,2729,23,0,0,0,11,58117
6,10,13,6664,2729,23,0,0,0,11,57960
6,10,13,6664,2729,23,0,0,0,11,57369
6,10,13,6664,2729,23,0,0,0,11,57304
6,10,13,6664,2729,23,0,0,0,11,57736
6,10,13,6664,2729,23,0,0,0,11,57223
6,10,13,6664,2729,23,0,0,0,11,57384
6,10,13,6664,2729,23,0,0,0,11,56791
6,10,13,6664,2729,23,0,0,0,11,56956
6,10,13,6664,2729,23,0,0,0,11,57347
6,10,13,6664,2729,23,0,0,0,11,56917
6,10,13,6664,2729,23,0,0,0,11,56661
6,10,13,6664,2729,23,0,0,0,11,57646
6,10,13,6664,2729,23,0,0,0,11,57232
6,10,13,6664,2729,23,0,0,0,11,57332
6,10,13,6664,2729,23,0,0,0,11,56828
6,10,13,6664,2729,23,0,0,0,11,56618
6,10,13,6664,2729,23,0,0,0,11,57579
6,10,13,6664,2729,23,0,0,0,11,58378
6,10,13,6664,2729,23,0,0,0,11,56994
6,10,13,6664,2729,23,0,0,0,11,57428
6,10,13,6664,2729,23,0,0,0,11,57140
6,10,13,6664,2729,23,0,0,0,11,56519
6,10,13,6664,2729,23,0,0,0,11,57038
6,10,13,6664,2729,23,0,0,0,11,57742
6,10,13,6664,2729,23,0,0,0,11,57655
6,10,13,6664,2729,23,0,0,0,11,57521
6,10,13,6664,2729,23,0,0,0,11,57389
6,10,13,6664,2729,23,0,0,0,11,57701
6,10,13,6664,2729,23,0,0,0,11,56661
6,10,13,6664,2729,23,0,0,0,11,56798
6,10,13,6664,2729,23,0,0,0,11,57233
6,10,13,6664,2729,23,0,0,0,11,60801
6,10,13,6664,2729,23,0,0,0,11,57145
6,10,13,6664,2729,23,0,0,0,11,57665
6,10,13,6664,2729,23,0,0,0,11,57065
6,10,13,6664,2729,23,0,0,0,11,56617
6,10,13,6664,2729,23,0,0,0,11,57275
6,10,13,6664,2729,23,0,0,0,11,56705
6,10,13,6664,2729,23,0,0,0,11,56716
6,10,13,6664,2729,23,0,0,0,11,56439
6,10,13,6664,2729,23,0,0,0,11,56605
6,10,13,6664,2729,23,0,0,0,11,56973
6,10,13,6664,2729,23,0,0,0,11,56478
6,10,13,6664,2729,23,0,0,0,11,56510
6,10,13,6664,2729,23,0,0,0,11,56526
1,16,7,918,840,2,0,0,0,4,7570
1,16,7,918,840,2,0,0,0,4,5296
1,16,7,918,840,2,0,0,0,4,4382
1,16,7,918,840,2,0,0,0,4,4409
1,16,7,918,840,2,0,0,0,4,4190
1,16,7,918,840,2,0,0,0,4,4058
1,16,7,918,840,2,0,0,0,4,4038
1,16,7,918,840,2,0,0,0,4,4139
1,16,7,918,840,2,0,0,0,4,4088
1,16,7,918,840,2,0,0,0,4,3948
1,16,7,918,840,2,0,0,0,4,4017
1,16,7,918,840,2,0,0,0,4,4097
1,16,7,918,840,2,0,0,0,4,4027
1,16,7,918,840,2,0,0,0,4,4052
1,16,7,918,840,2,0,0,0,4,4034
1,16,7,918,840,2,0,0,0,4,4082
1,16,7,918,840,2,0,0,0,4,4213
1,16,7,918,840,2,0,0,0,4,4031
1,16,7,918,840,2,0,0,0,4,4211
1,16,7,918,840,2,0,0,0,4,3894
1,16,7,918,840,2,0,0,0,4,4098
1,16,7,918,840,2,0,0,0,4,3965
1,16,7,918,840,2,0,0,0,4,4018
1,16,7,918,840,2,0,0,0,4,3966
1,16,7,918,840,2,0,0,0,4,4101
1,16,7,918,840,2,0,0,0,4,4152
1,16,7,918,840,2,0,0,0,4,4125
1,16,7,918,840,2,0,0,0,4,3974
1,16,7,918,840,2,0,0,0,4,4022
1,16,7,918,840,2,0,0,0,4,4128
1,16,7,918,840,2,0,0,0,4,4009
1,16,7,918,840,2,0,0,0,4,4045
1,16,7,918,840,2,0,0,0,4,4059
1,16,7,918,840,2,0,0,0,4,3978
1,16,7,918,840,2,0,0,0,4,4113
1,16,7,918,840,2,0,0,0,4,4121
1,16,7,918,840,2,0,0,0,4,3996
1,16,7,918,840,2,0,0,0,4,4013
1,16,7,918,840,2,0,0,0,4,3999
1,16,7,918,840,2,0,0,0,4,4096
1,16,7,918,840,2,0,0,0,4,4051
1,16,7,918,840,2,0,0,0,4,4089
1,16,7,918,840,2,0,0,0,4,4010
1,16,7,918,840,2,0,0,0,4,3988
1,16,7,918,840,2,0,0,0,4,4015
1,16,7,918,840,2,0,0,0,4,4045
1,16,7,918,840,2,0,0,0,4,4086
1,16,7,918,840,2,0,0,0,4,4062
1,16,7,918,840,2,0,0,0,4,4100
1,16,7,918,840,2,0,0,0,4,4045
1,16,7,918,840,2,0,0,0,4,4073
1,16,7,918,840,2,0,0,0,4,3963
1,16,7,918,840,2,0,0,0,4,4058
1,16,7,918,840,2,0,0,0,4,3956
1,16,7,918,840,2,0,0,0,4,4027
1,16,7,918,840,2,0,0,0,4,4058
1,16,7,918,840,2,0,0,0,4,3984
1,16,7,918,840,2,0,0,0,4,4021
1,16,7,918,840,2,0,0,0,4,3878
1,16,7,918,840,2,0,0,0,4,3836
1,16,7,918,840,2,0,0,0,4,4029
1,16,7,918,840,2,0,0,0,4,4141
1,16,7,918,840,2,0,0,0,4,3888
1,16,7,918,840,2,0,0,0,4,3946
1,16,7,918,840,2,0,0,0,4,3981
1,16,7,918,840,2,0,0,0,4,4056
1,16,7,918,840,2,0,0,0,4,3929
1,16,7,918,840,2,0,0,0,4,3988
1,16,7,918,840,2,0,0,0,4,3979
1,16,7,918,840,2,0,0,0,4,4046
1,16,7,918,840,2,0,0,0,4,4020
1,16,7,918,840,2,0,0,0,4,3973
1,16,7,918,840,2,0,0,0,4,4180
1,16,7,918,840,2,0,0,0,4,3941
1,16,7,918,840,2,0,0,0,4,4494
1,16,7,918,840,2,0,0,0,4,4321
1,16,7,918,840,2,0,0,0,4,4206
1,16,7,918,840,2,0,0,0,4,4207
1,16,7,918,840,2,0,0,0,4,4287
1,16,7,918,840,2,0,0,0,4,4296
1,16,7,918,840,2,0,0,0,4,4448
1,16,7,918,840,2,0,0,0,4,4321
1,16,7,918,840,2,0,0,0,4,4231
1,16,7,918,840,2,0,0,0,4,4313
1,16,7,918,840,2,0,0,0,4,4339
1,16,7,918,840,2,0,0,0,4,4230
1,16,7,918,840,2,0,0,0,4,4184
1,16,7,918,840,2,0,0,0,4,4260
1,16,7,918,840,2,0,0,0,4,4342
1,16,7,918,840,2,0,0,0,4,4439
1,16,7,918,840,2,0,0,0,4,4397
1,16,7,918,840,2,0,0,0,4,4387
1,16,7,918,840,2,0,0,0,4,15044
1,16,7,918,840,2,0,0,0,4,4073
1,16,7,918,840,2,0,0,0,4,4092
1,16,7,918,840,2,0,0,0,4,4022
1,16,7,918,840,2,0,0,0,4,4039
1,16,7,918,840,2,0,0,0,4,4033
1,16,7,918,840,2,0,0,0,4,4116
1,16,7,918,840,2,0,0,0,4,3995
10,8,11,5858,2139,26,0,0,0,14,149929
10,8,11,5858,2139,26,0,0,0,14,145567
10,8,11,5858,2139,26,0,0,0,14,144607
10,8,11,5858,2139,26,0,0,0,14,146227
10,8,11,5858,2139,26,0,0,0,14,145260
10,8,11,5858,2139,26,0,0,0,14,146022
10,8,11,5858,2139,26,0,0,0,14,143662
10,8,11,5858,2139,26,0,0,0,14,145270
10,8,11,5858,2139,26,0,0,0,14,144773
10,8,11,5858,2139,26,0,0,0,14,144843
10,8,11,5858,2139,26,0,0,0,14,143992
10,8,11,5858,2139,26,0,0,0,14,144730
10,8,11,5858,2139,26,0,0,0,14,145672
10,8,11,5858,2139,26,0,0,0,14,190081
10,8,11,5858,2139,26,0,0,0,14,223542
10,8,11,5858,2139,26,0,0,0,14,236970
10,8,11,5858,2139,26,0,0,0,14,246301
10,8,11,5858,2139,26,0,0,0,14,243450
10,8,11,5858,2139,26,0,0,0,14,218563
10,8,11,5858,2139,26,0,0,0,14,215320
10,8,11,5858,2139,26,0,0,0,14,163010
10,8,11,5858,2139,26,0,0,0,14,186705
10,8,11,5858,2139,26,0,0,0,14,177676
10,8,11,5858,2139,26,0,0,0,14,179730
10,8,11,5858,2139,26,0,0,0,14,146235
10,8,11,5858,2139,26,0,0,0,14,147937
10,8,11,5858,2139,26,0,0,0,14,161120
10,8,11,5858,2139,26,0,0,0,14,164958
10,8,11,5858,2139,26,0,0,0,14,166139
10,8,11,5858,2139,26,0,0,0,14,156324
10,8,11,5858,2139,26,0,0,0,14,154449
10,8,11,5858,2139,26,0,0,0,14,157098
10,8,11,5858,2139,26,0,0,0,14,155426
10,8,11,5858,2139,26,0,0,0,14,167082
10,8,11,5858,2139,26,0,0,0,14,156738
10,8,11,5858,2139,26,0,0,0,14,171727
10,8,11,5858,2139,26,0,0,0,14,146444
10,8,11,5858,2139,26,0,0,0,14,145751
10,8,11,5858,2139,26,0,0,0,14,150128
10,8,11,5858,2139,26,0,0,0,14,148983
10,8,11,5858,2139,26,0,0,0,14,153852
10,8,11,5858,2139,26,0,0,0,14,151267
10,8,11,5858,2139,26,0,0,0,14,153433
10,8,11,5858,2139,26,0,0,0,14,149530
10,8,11,5858,2139,26,0,0,0,14,149361
10,8,11,5858,2139,26,0,0,0,14,150340
10,8,11,5858,2139,26,0,0,0,14,156364
10,8,11,5858,2139,26,0,0,0,14,151017
10,8,11,5858,2139,26,0,0,0,14,150374
10,8,11,5858,2139,26,0,0,0,14,154047
10,8,11,5858,2139,26,0,0,0,14,163368
10,8,11,5858,2139,26,0,0,0,14,190364
10,8,11,5858,2139,26,0,0,0,14,144285
10,8,11,5858,2139,26,0,0,0,14,144800
10,8,11,5858,2139,26,0,0,0,14,144644
10,8,11,5858,2139,26,0,0,0,14,143978
10,8,11,5858,2139,26,0,0,0,14,144106
10,8,11,5858,2139,26,0,0,0,14,179945
10,8,11,5858,2139,26,0,0,0,14,144734
10,8,11,5858,2139,26,0,0,0,14,143373
10,8,11,5858,2139,26,0,0,0,14,144840
10,8,11,5858,2139,26,0,0,0,14,145619
10,8,11,5858,2139,26,0,0,0,14,143816
10,8,11,5858,2139,26,0,0,0,14,143536
10,8,11,5858,2139,26,0,0,0,14,143466
10,8,11,5858,2139,26,0,0,0,14,146508
10,8,11,5858,2139,26,0,0,0,14,144323
10,8,11,5858,2139,26,0,0,0,14,143600
10,8,11,5858,2139,26,0,0,0,14,145820
10,8,11,5858,2139,26,0,0,0,14,145358
10,8,11,5858,2139,26,0,0,0,14,144741
10,8,11,5858,2139,26,0,0,0,14,145393
10,8,11,5858,2139,26,0,0,0,14,145189
10,8,11,5858,2139,26,0,0,0,14,145575
10,8,11,5858,2139,26,0,0,0,14,144567
10,8,11,5858,2139,26,0,0,0,14,143627
10,8,11,5858,2139,26,0,0,0,14,159635
10,8,11,5858,2139,26,0,0,0,14,158999
10,8,11,5858,2139,26,0,0,0,14,146960
10,8,11,5858,2139,26,0,0,0,14,145635
10,8,11,5858,2139,26,0,0,0,14,145252
10,8,11,5858,2139,26,0,0,0,14,143976
10,8,11,5858,2139,26,0,0,0,14,145403
10,8,11,5858,2139,26,0,0,0,14,146709
10,8,11,5858,2139,26,0,0,0,14,145000
10,8,11,5858,2139,26,0,0,0,14,143513
10,8,11,5858,2139,26,0,0,0,14,144738
10,8,11,5858,2139,26,0,0,0,14,144946
10,8,11,5858,2139,26,0,0,0,14,146647
10,8,11,5858,2139,26,0,0,0,14,145436
10,8,11,5858,2139,26,0,0,0,14,143769
10,8,11,5858,2139,26,0,0,0,14,143942
10,8,11,5858,2139,26,0,0,0,14,146264
10,8,11,5858,2139,26,0,0,0,14,146083
10,8,11,5858,2139,26,0,0,0,14,145177
10,8,11,5858,2139,26,0,0,0,14,145763
10,8,11,5858,2139,26,0,0,0,14,145303
10,8,11,5858,2139,26,0,0,0,14,143642
10,8,11,5858,2139,26,0,0,0,14,143461
10,8,11,5858,2139,26,0,0,0,14,143669
