cantGimnasios,cantPokeparadas,tamMochila,distanciaOriginal,distanciaNueva,cantPermutacionesParaMejorar,cantPermutacionesParaMantener,cantReemplazosParaMejorar,cantReemplazosParaMantener,tamCamino,tiempo
1,0,12,0,0,0,0,0,0,1,1020
1,0,12,0,0,0,0,0,0,1,572
1,0,12,0,0,0,0,0,0,1,620
1,0,12,0,0,0,0,0,0,1,410
1,0,12,0,0,0,0,0,0,1,336
1,0,12,0,0,0,0,0,0,1,328
1,0,12,0,0,0,0,0,0,1,313
1,0,12,0,0,0,0,0,0,1,303
1,0,12,0,0,0,0,0,0,1,298
1,0,12,0,0,0,0,0,0,1,298
1,0,12,0,0,0,0,0,0,1,294
1,0,12,0,0,0,0,0,0,1,298
1,0,12,0,0,0,0,0,0,1,290
1,0,12,0,0,0,0,0,0,1,287
1,0,12,0,0,0,0,0,0,1,313
1,0,12,0,0,0,0,0,0,1,301
1,0,12,0,0,0,0,0,0,1,293
1,0,12,0,0,0,0,0,0,1,304
1,0,12,0,0,0,0,0,0,1,294
1,0,12,0,0,0,0,0,0,1,300
1,0,12,0,0,0,0,0,0,1,313
1,0,12,0,0,0,0,0,0,1,304
1,0,12,0,0,0,0,0,0,1,295
1,0,12,0,0,0,0,0,0,1,295
1,0,12,0,0,0,0,0,0,1,293
1,0,12,0,0,0,0,0,0,1,294
1,0,12,0,0,0,0,0,0,1,296
1,0,12,0,0,0,0,0,0,1,300
1,0,12,0,0,0,0,0,0,1,304
1,0,12,0,0,0,0,0,0,1,289
1,0,12,0,0,0,0,0,0,1,302
1,0,12,0,0,0,0,0,0,1,289
1,0,12,0,0,0,0,0,0,1,306
1,0,12,0,0,0,0,0,0,1,306
1,0,12,0,0,0,0,0,0,1,301
1,0,12,0,0,0,0,0,0,1,293
1,0,12,0,0,0,0,0,0,1,298
1,0,12,0,0,0,0,0,0,1,288
1,0,12,0,0,0,0,0,0,1,292
1,0,12,0,0,0,0,0,0,1,301
1,0,12,0,0,0,0,0,0,1,287
1,0,12,0,0,0,0,0,0,1,287
1,0,12,0,0,0,0,0,0,1,293
1,0,12,0,0,0,0,0,0,1,306
1,0,12,0,0,0,0,0,0,1,298
1,0,12,0,0,0,0,0,0,1,308
1,0,12,0,0,0,0,0,0,1,270
1,0,12,0,0,0,0,0,0,1,286
1,0,12,0,0,0,0,0,0,1,295
1,0,12,0,0,0,0,0,0,1,297
1,0,12,0,0,0,0,0,0,1,295
1,0,12,0,0,0,0,0,0,1,309
1,0,12,0,0,0,0,0,0,1,297
1,0,12,0,0,0,0,0,0,1,282
1,0,12,0,0,0,0,0,0,1,293
1,0,12,0,0,0,0,0,0,1,263
1,0,12,0,0,0,0,0,0,1,280
1,0,12,0,0,0,0,0,0,1,289
1,0,12,0,0,0,0,0,0,1,272
1,0,12,0,0,0,0,0,0,1,273
1,0,12,0,0,0,0,0,0,1,270
1,0,12,0,0,0,0,0,0,1,269
1,0,12,0,0,0,0,0,0,1,281
1,0,12,0,0,0,0,0,0,1,281
1,0,12,0,0,0,0,0,0,1,287
1,0,12,0,0,0,0,0,0,1,279
1,0,12,0,0,0,0,0,0,1,277
1,0,12,0,0,0,0,0,0,1,279
1,0,12,0,0,0,0,0,0,1,286
1,0,12,0,0,0,0,0,0,1,296
1,0,12,0,0,0,0,0,0,1,293
1,0,12,0,0,0,0,0,0,1,299
1,0,12,0,0,0,0,0,0,1,288
1,0,12,0,0,0,0,0,0,1,258
1,0,12,0,0,0,0,0,0,1,281
1,0,12,0,0,0,0,0,0,1,290
1,0,12,0,0,0,0,0,0,1,296
1,0,12,0,0,0,0,0,0,1,276
1,0,12,0,0,0,0,0,0,1,284
1,0,12,0,0,0,0,0,0,1,275
1,0,12,0,0,0,0,0,0,1,292
1,0,12,0,0,0,0,0,0,1,278
1,0,12,0,0,0,0,0,0,1,283
1,0,12,0,0,0,0,0,0,1,266
1,0,12,0,0,0,0,0,0,1,297
1,0,12,0,0,0,0,0,0,1,275
1,0,12,0,0,0,0,0,0,1,282
1,0,12,0,0,0,0,0,0,1,271
1,0,12,0,0,0,0,0,0,1,276
1,0,12,0,0,0,0,0,0,1,269
1,0,12,0,0,0,0,0,0,1,275
1,0,12,0,0,0,0,0,0,1,279
1,0,12,0,0,0,0,0,0,1,283
1,0,12,0,0,0,0,0,0,1,269
1,0,12,0,0,0,0,0,0,1,285
1,0,12,0,0,0,0,0,0,1,285
1,0,12,0,0,0,0,0,0,1,291
1,0,12,0,0,0,0,0,0,1,286
1,0,12,0,0,0,0,0,0,1,287
1,0,12,0,0,0,0,0,0,1,288
1,1,12,488,488,0,0,0,0,2,1906
1,1,12,488,488,0,0,0,0,2,1327
1,1,12,488,488,0,0,0,0,2,1325
1,1,12,488,488,0,0,0,0,2,885
1,1,12,488,488,0,0,0,0,2,666
1,1,12,488,488,0,0,0,0,2,744
1,1,12,488,488,0,0,0,0,2,625
1,1,12,488,488,0,0,0,0,2,655
1,1,12,488,488,0,0,0,0,2,612
1,1,12,488,488,0,0,0,0,2,612
1,1,12,488,488,0,0,0,0,2,622
1,1,12,488,488,0,0,0,0,2,633
1,1,12,488,488,0,0,0,0,2,635
1,1,12,488,488,0,0,0,0,2,652
1,1,12,488,488,0,0,0,0,2,647
1,1,12,488,488,0,0,0,0,2,600
1,1,12,488,488,0,0,0,0,2,642
1,1,12,488,488,0,0,0,0,2,641
1,1,12,488,488,0,0,0,0,2,641
1,1,12,488,488,0,0,0,0,2,612
1,1,12,488,488,0,0,0,0,2,614
1,1,12,488,488,0,0,0,0,2,625
1,1,12,488,488,0,0,0,0,2,641
1,1,12,488,488,0,0,0,0,2,673
1,1,12,488,488,0,0,0,0,2,687
1,1,12,488,488,0,0,0,0,2,621
1,1,12,488,488,0,0,0,0,2,641
1,1,12,488,488,0,0,0,0,2,600
1,1,12,488,488,0,0,0,0,2,663
1,1,12,488,488,0,0,0,0,2,646
1,1,12,488,488,0,0,0,0,2,607
1,1,12,488,488,0,0,0,0,2,614
1,1,12,488,488,0,0,0,0,2,620
1,1,12,488,488,0,0,0,0,2,625
1,1,12,488,488,0,0,0,0,2,650
1,1,12,488,488,0,0,0,0,2,633
1,1,12,488,488,0,0,0,0,2,619
1,1,12,488,488,0,0,0,0,2,640
1,1,12,488,488,0,0,0,0,2,646
1,1,12,488,488,0,0,0,0,2,629
1,1,12,488,488,0,0,0,0,2,618
1,1,12,488,488,0,0,0,0,2,629
1,1,12,488,488,0,0,0,0,2,640
1,1,12,488,488,0,0,0,0,2,640
1,1,12,488,488,0,0,0,0,2,654
1,1,12,488,488,0,0,0,0,2,617
1,1,12,488,488,0,0,0,0,2,641
1,1,12,488,488,0,0,0,0,2,629
1,1,12,488,488,0,0,0,0,2,735
1,1,12,488,488,0,0,0,0,2,672
1,1,12,488,488,0,0,0,0,2,700
1,1,12,488,488,0,0,0,0,2,600
1,1,12,488,488,0,0,0,0,2,646
1,1,12,488,488,0,0,0,0,2,605
1,1,12,488,488,0,0,0,0,2,616
1,1,12,488,488,0,0,0,0,2,626
1,1,12,488,488,0,0,0,0,2,634
1,1,12,488,488,0,0,0,0,2,622
1,1,12,488,488,0,0,0,0,2,630
1,1,12,488,488,0,0,0,0,2,620
1,1,12,488,488,0,0,0,0,2,612
1,1,12,488,488,0,0,0,0,2,621
1,1,12,488,488,0,0,0,0,2,607
1,1,12,488,488,0,0,0,0,2,633
1,1,12,488,488,0,0,0,0,2,595
1,1,12,488,488,0,0,0,0,2,604
1,1,12,488,488,0,0,0,0,2,596
1,1,12,488,488,0,0,0,0,2,609
1,1,12,488,488,0,0,0,0,2,631
1,1,12,488,488,0,0,0,0,2,618
1,1,12,488,488,0,0,0,0,2,605
1,1,12,488,488,0,0,0,0,2,607
1,1,12,488,488,0,0,0,0,2,619
1,1,12,488,488,0,0,0,0,2,599
1,1,12,488,488,0,0,0,0,2,630
1,1,12,488,488,0,0,0,0,2,607
1,1,12,488,488,0,0,0,0,2,623
1,1,12,488,488,0,0,0,0,2,636
1,1,12,488,488,0,0,0,0,2,615
1,1,12,488,488,0,0,0,0,2,629
1,1,12,488,488,0,0,0,0,2,634
1,1,12,488,488,0,0,0,0,2,642
1,1,12,488,488,0,0,0,0,2,619
1,1,12,488,488,0,0,0,0,2,613
1,1,12,488,488,0,0,0,0,2,618
1,1,12,488,488,0,0,0,0,2,640
1,1,12,488,488,0,0,0,0,2,623
1,1,12,488,488,0,0,0,0,2,621
1,1,12,488,488,0,0,0,0,2,620
1,1,12,488,488,0,0,0,0,2,620
1,1,12,488,488,0,0,0,0,2,620
1,1,12,488,488,0,0,0,0,2,622
1,1,12,488,488,0,0,0,0,2,622
1,1,12,488,488,0,0,0,0,2,608
1,1,12,488,488,0,0,0,0,2,612
1,1,12,488,488,0,0,0,0,2,620
1,1,12,488,488,0,0,0,0,2,661
1,1,12,488,488,0,0,0,0,2,617
1,1,12,488,488,0,0,0,0,2,611
1,1,12,488,488,0,0,0,0,2,622
3,0,12,719,719,0,0,0,0,3,857
3,0,12,719,719,0,0,0,0,3,590
3,0,12,719,719,0,0,0,0,3,720
3,0,12,719,719,0,0,0,0,3,498
3,0,12,719,719,0,0,0,0,3,377
3,0,12,719,719,0,0,0,0,3,385
3,0,12,719,719,0,0,0,0,3,371
3,0,12,719,719,0,0,0,0,3,373
3,0,12,719,719,0,0,0,0,3,324
3,0,12,719,719,0,0,0,0,3,335
3,0,12,719,719,0,0,0,0,3,350
3,0,12,719,719,0,0,0,0,3,346
3,0,12,719,719,0,0,0,0,3,354
3,0,12,719,719,0,0,0,0,3,345
3,0,12,719,719,0,0,0,0,3,349
3,0,12,719,719,0,0,0,0,3,360
3,0,12,719,719,0,0,0,0,3,349
3,0,12,719,719,0,0,0,0,3,350
3,0,12,719,719,0,0,0,0,3,354
3,0,12,719,719,0,0,0,0,3,356
3,0,12,719,719,0,0,0,0,3,350
3,0,12,719,719,0,0,0,0,3,351
3,0,12,719,719,0,0,0,0,3,359
3,0,12,719,719,0,0,0,0,3,355
3,0,12,719,719,0,0,0,0,3,337
3,0,12,719,719,0,0,0,0,3,315
3,0,12,719,719,0,0,0,0,3,326
3,0,12,719,719,0,0,0,0,3,330
3,0,12,719,719,0,0,0,0,3,334
3,0,12,719,719,0,0,0,0,3,343
3,0,12,719,719,0,0,0,0,3,342
3,0,12,719,719,0,0,0,0,3,338
3,0,12,719,719,0,0,0,0,3,336
3,0,12,719,719,0,0,0,0,3,322
3,0,12,719,719,0,0,0,0,3,324
3,0,12,719,719,0,0,0,0,3,324
3,0,12,719,719,0,0,0,0,3,331
3,0,12,719,719,0,0,0,0,3,331
3,0,12,719,719,0,0,0,0,3,349
3,0,12,719,719,0,0,0,0,3,334
3,0,12,719,719,0,0,0,0,3,341
3,0,12,719,719,0,0,0,0,3,315
3,0,12,719,719,0,0,0,0,3,303
3,0,12,719,719,0,0,0,0,3,320
3,0,12,719,719,0,0,0,0,3,331
3,0,12,719,719,0,0,0,0,3,325
3,0,12,719,719,0,0,0,0,3,316
3,0,12,719,719,0,0,0,0,3,333
3,0,12,719,719,0,0,0,0,3,377
3,0,12,719,719,0,0,0,0,3,343
3,0,12,719,719,0,0,0,0,3,339
3,0,12,719,719,0,0,0,0,3,342
3,0,12,719,719,0,0,0,0,3,347
3,0,12,719,719,0,0,0,0,3,332
3,0,12,719,719,0,0,0,0,3,333
3,0,12,719,719,0,0,0,0,3,343
3,0,12,719,719,0,0,0,0,3,338
3,0,12,719,719,0,0,0,0,3,366
3,0,12,719,719,0,0,0,0,3,336
3,0,12,719,719,0,0,0,0,3,323
3,0,12,719,719,0,0,0,0,3,333
3,0,12,719,719,0,0,0,0,3,315
3,0,12,719,719,0,0,0,0,3,331
3,0,12,719,719,0,0,0,0,3,322
3,0,12,719,719,0,0,0,0,3,329
3,0,12,719,719,0,0,0,0,3,316
3,0,12,719,719,0,0,0,0,3,309
3,0,12,719,719,0,0,0,0,3,328
3,0,12,719,719,0,0,0,0,3,321
3,0,12,719,719,0,0,0,0,3,323
3,0,12,719,719,0,0,0,0,3,332
3,0,12,719,719,0,0,0,0,3,343
3,0,12,719,719,0,0,0,0,3,357
3,0,12,719,719,0,0,0,0,3,370
3,0,12,719,719,0,0,0,0,3,340
3,0,12,719,719,0,0,0,0,3,340
3,0,12,719,719,0,0,0,0,3,332
3,0,12,719,719,0,0,0,0,3,338
3,0,12,719,719,0,0,0,0,3,334
3,0,12,719,719,0,0,0,0,3,340
3,0,12,719,719,0,0,0,0,3,338
3,0,12,719,719,0,0,0,0,3,331
3,0,12,719,719,0,0,0,0,3,335
3,0,12,719,719,0,0,0,0,3,325
3,0,12,719,719,0,0,0,0,3,325
3,0,12,719,719,0,0,0,0,3,331
3,0,12,719,719,0,0,0,0,3,327
3,0,12,719,719,0,0,0,0,3,346
3,0,12,719,719,0,0,0,0,3,310
3,0,12,719,719,0,0,0,0,3,380
3,0,12,719,719,0,0,0,0,3,377
3,0,12,719,719,0,0,0,0,3,369
3,0,12,719,719,0,0,0,0,3,347
3,0,12,719,719,0,0,0,0,3,351
3,0,12,719,719,0,0,0,0,3,354
3,0,12,719,719,0,0,0,0,3,333
3,0,12,719,719,0,0,0,0,3,324
3,0,12,719,719,0,0,0,0,3,333
3,0,12,719,719,0,0,0,0,3,317
3,0,12,719,719,0,0,0,0,3,350
3,1,12,1393,1393,0,0,0,0,4,1942
3,1,12,1393,1393,0,0,0,0,4,1458
3,1,12,1393,1393,0,0,0,0,4,1090
3,1,12,1393,1393,0,0,0,0,4,931
3,1,12,1393,1393,0,0,0,0,4,742
3,1,12,1393,1393,0,0,0,0,4,723
3,1,12,1393,1393,0,0,0,0,4,776
3,1,12,1393,1393,0,0,0,0,4,685
3,1,12,1393,1393,0,0,0,0,4,651
3,1,12,1393,1393,0,0,0,0,4,638
3,1,12,1393,1393,0,0,0,0,4,687
3,1,12,1393,1393,0,0,0,0,4,664
3,1,12,1393,1393,0,0,0,0,4,641
3,1,12,1393,1393,0,0,0,0,4,652
3,1,12,1393,1393,0,0,0,0,4,654
3,1,12,1393,1393,0,0,0,0,4,684
3,1,12,1393,1393,0,0,0,0,4,726
3,1,12,1393,1393,0,0,0,0,4,652
3,1,12,1393,1393,0,0,0,0,4,633
3,1,12,1393,1393,0,0,0,0,4,611
3,1,12,1393,1393,0,0,0,0,4,641
3,1,12,1393,1393,0,0,0,0,4,640
3,1,12,1393,1393,0,0,0,0,4,713
3,1,12,1393,1393,0,0,0,0,4,752
3,1,12,1393,1393,0,0,0,0,4,676
3,1,12,1393,1393,0,0,0,0,4,635
3,1,12,1393,1393,0,0,0,0,4,625
3,1,12,1393,1393,0,0,0,0,4,639
3,1,12,1393,1393,0,0,0,0,4,644
3,1,12,1393,1393,0,0,0,0,4,663
3,1,12,1393,1393,0,0,0,0,4,678
3,1,12,1393,1393,0,0,0,0,4,633
3,1,12,1393,1393,0,0,0,0,4,618
3,1,12,1393,1393,0,0,0,0,4,638
3,1,12,1393,1393,0,0,0,0,4,619
3,1,12,1393,1393,0,0,0,0,4,645
3,1,12,1393,1393,0,0,0,0,4,664
3,1,12,1393,1393,0,0,0,0,4,673
3,1,12,1393,1393,0,0,0,0,4,662
3,1,12,1393,1393,0,0,0,0,4,689
3,1,12,1393,1393,0,0,0,0,4,677
3,1,12,1393,1393,0,0,0,0,4,689
3,1,12,1393,1393,0,0,0,0,4,697
3,1,12,1393,1393,0,0,0,0,4,695
3,1,12,1393,1393,0,0,0,0,4,688
3,1,12,1393,1393,0,0,0,0,4,685
3,1,12,1393,1393,0,0,0,0,4,664
3,1,12,1393,1393,0,0,0,0,4,691
3,1,12,1393,1393,0,0,0,0,4,732
3,1,12,1393,1393,0,0,0,0,4,660
3,1,12,1393,1393,0,0,0,0,4,651
3,1,12,1393,1393,0,0,0,0,4,653
3,1,12,1393,1393,0,0,0,0,4,739
3,1,12,1393,1393,0,0,0,0,4,655
3,1,12,1393,1393,0,0,0,0,4,650
3,1,12,1393,1393,0,0,0,0,4,663
3,1,12,1393,1393,0,0,0,0,4,665
3,1,12,1393,1393,0,0,0,0,4,661
3,1,12,1393,1393,0,0,0,0,4,679
3,1,12,1393,1393,0,0,0,0,4,658
3,1,12,1393,1393,0,0,0,0,4,649
3,1,12,1393,1393,0,0,0,0,4,692
3,1,12,1393,1393,0,0,0,0,4,669
3,1,12,1393,1393,0,0,0,0,4,665
3,1,12,1393,1393,0,0,0,0,4,667
3,1,12,1393,1393,0,0,0,0,4,710
3,1,12,1393,1393,0,0,0,0,4,619
3,1,12,1393,1393,0,0,0,0,4,639
3,1,12,1393,1393,0,0,0,0,4,681
3,1,12,1393,1393,0,0,0,0,4,631
3,1,12,1393,1393,0,0,0,0,4,608
3,1,12,1393,1393,0,0,0,0,4,620
3,1,12,1393,1393,0,0,0,0,4,645
3,1,12,1393,1393,0,0,0,0,4,726
3,1,12,1393,1393,0,0,0,0,4,669
3,1,12,1393,1393,0,0,0,0,4,651
3,1,12,1393,1393,0,0,0,0,4,657
3,1,12,1393,1393,0,0,0,0,4,661
3,1,12,1393,1393,0,0,0,0,4,651
3,1,12,1393,1393,0,0,0,0,4,668
3,1,12,1393,1393,0,0,0,0,4,666
3,1,12,1393,1393,0,0,0,0,4,667
3,1,12,1393,1393,0,0,0,0,4,666
3,1,12,1393,1393,0,0,0,0,4,649
3,1,12,1393,1393,0,0,0,0,4,666
3,1,12,1393,1393,0,0,0,0,4,662
3,1,12,1393,1393,0,0,0,0,4,664
3,1,12,1393,1393,0,0,0,0,4,674
3,1,12,1393,1393,0,0,0,0,4,674
3,1,12,1393,1393,0,0,0,0,4,657
3,1,12,1393,1393,0,0,0,0,4,663
3,1,12,1393,1393,0,0,0,0,4,727
3,1,12,1393,1393,0,0,0,0,4,641
3,1,12,1393,1393,0,0,0,0,4,662
3,1,12,1393,1393,0,0,0,0,4,658
3,1,12,1393,1393,0,0,0,0,4,695
3,1,12,1393,1393,0,0,0,0,4,666
3,1,12,1393,1393,0,0,0,0,4,659
3,1,12,1393,1393,0,0,0,0,4,661
3,1,12,1393,1393,0,0,0,0,4,709
5,0,12,1539,1539,0,0,0,0,5,1015
5,0,12,1539,1539,0,0,0,0,5,764
5,0,12,1539,1539,0,0,0,0,5,2593
5,0,12,1539,1539,0,0,0,0,5,434
5,0,12,1539,1539,0,0,0,0,5,463
5,0,12,1539,1539,0,0,0,0,5,433
5,0,12,1539,1539,0,0,0,0,5,403
5,0,12,1539,1539,0,0,0,0,5,402
5,0,12,1539,1539,0,0,0,0,5,410
5,0,12,1539,1539,0,0,0,0,5,374
5,0,12,1539,1539,0,0,0,0,5,398
5,0,12,1539,1539,0,0,0,0,5,500
5,0,12,1539,1539,0,0,0,0,5,390
5,0,12,1539,1539,0,0,0,0,5,414
5,0,12,1539,1539,0,0,0,0,5,405
5,0,12,1539,1539,0,0,0,0,5,419
5,0,12,1539,1539,0,0,0,0,5,411
5,0,12,1539,1539,0,0,0,0,5,425
5,0,12,1539,1539,0,0,0,0,5,413
5,0,12,1539,1539,0,0,0,0,5,415
5,0,12,1539,1539,0,0,0,0,5,426
5,0,12,1539,1539,0,0,0,0,5,412
5,0,12,1539,1539,0,0,0,0,5,506
5,0,12,1539,1539,0,0,0,0,5,466
5,0,12,1539,1539,0,0,0,0,5,421
5,0,12,1539,1539,0,0,0,0,5,456
5,0,12,1539,1539,0,0,0,0,5,422
5,0,12,1539,1539,0,0,0,0,5,398
5,0,12,1539,1539,0,0,0,0,5,426
5,0,12,1539,1539,0,0,0,0,5,416
5,0,12,1539,1539,0,0,0,0,5,432
5,0,12,1539,1539,0,0,0,0,5,410
5,0,12,1539,1539,0,0,0,0,5,422
5,0,12,1539,1539,0,0,0,0,5,403
5,0,12,1539,1539,0,0,0,0,5,425
5,0,12,1539,1539,0,0,0,0,5,424
5,0,12,1539,1539,0,0,0,0,5,434
5,0,12,1539,1539,0,0,0,0,5,413
5,0,12,1539,1539,0,0,0,0,5,431
5,0,12,1539,1539,0,0,0,0,5,419
5,0,12,1539,1539,0,0,0,0,5,423
5,0,12,1539,1539,0,0,0,0,5,434
5,0,12,1539,1539,0,0,0,0,5,401
5,0,12,1539,1539,0,0,0,0,5,418
5,0,12,1539,1539,0,0,0,0,5,423
5,0,12,1539,1539,0,0,0,0,5,390
5,0,12,1539,1539,0,0,0,0,5,400
5,0,12,1539,1539,0,0,0,0,5,392
5,0,12,1539,1539,0,0,0,0,5,400
5,0,12,1539,1539,0,0,0,0,5,398
5,0,12,1539,1539,0,0,0,0,5,396
5,0,12,1539,1539,0,0,0,0,5,406
5,0,12,1539,1539,0,0,0,0,5,405
5,0,12,1539,1539,0,0,0,0,5,413
5,0,12,1539,1539,0,0,0,0,5,399
5,0,12,1539,1539,0,0,0,0,5,403
5,0,12,1539,1539,0,0,0,0,5,403
5,0,12,1539,1539,0,0,0,0,5,406
5,0,12,1539,1539,0,0,0,0,5,415
5,0,12,1539,1539,0,0,0,0,5,421
5,0,12,1539,1539,0,0,0,0,5,484
5,0,12,1539,1539,0,0,0,0,5,426
5,0,12,1539,1539,0,0,0,0,5,505
5,0,12,1539,1539,0,0,0,0,5,461
5,0,12,1539,1539,0,0,0,0,5,462
5,0,12,1539,1539,0,0,0,0,5,478
5,0,12,1539,1539,0,0,0,0,5,465
5,0,12,1539,1539,0,0,0,0,5,428
5,0,12,1539,1539,0,0,0,0,5,416
5,0,12,1539,1539,0,0,0,0,5,416
5,0,12,1539,1539,0,0,0,0,5,399
5,0,12,1539,1539,0,0,0,0,5,360
5,0,12,1539,1539,0,0,0,0,5,403
5,0,12,1539,1539,0,0,0,0,5,396
5,0,12,1539,1539,0,0,0,0,5,432
5,0,12,1539,1539,0,0,0,0,5,396
5,0,12,1539,1539,0,0,0,0,5,402
5,0,12,1539,1539,0,0,0,0,5,404
5,0,12,1539,1539,0,0,0,0,5,407
5,0,12,1539,1539,0,0,0,0,5,407
5,0,12,1539,1539,0,0,0,0,5,399
5,0,12,1539,1539,0,0,0,0,5,399
5,0,12,1539,1539,0,0,0,0,5,405
5,0,12,1539,1539,0,0,0,0,5,363
5,0,12,1539,1539,0,0,0,0,5,377
5,0,12,1539,1539,0,0,0,0,5,387
5,0,12,1539,1539,0,0,0,0,5,411
5,0,12,1539,1539,0,0,0,0,5,402
5,0,12,1539,1539,0,0,0,0,5,392
5,0,12,1539,1539,0,0,0,0,5,402
5,0,12,1539,1539,0,0,0,0,5,434
5,0,12,1539,1539,0,0,0,0,5,385
5,0,12,1539,1539,0,0,0,0,5,424
5,0,12,1539,1539,0,0,0,0,5,395
5,0,12,1539,1539,0,0,0,0,5,384
5,0,12,1539,1539,0,0,0,0,5,399
5,0,12,1539,1539,0,0,0,0,5,400
5,0,12,1539,1539,0,0,0,0,5,405
5,0,12,1539,1539,0,0,0,0,5,410
5,0,12,1539,1539,0,0,0,0,5,408
1,5,12,924,591,0,0,3,0,3,12149
1,5,12,924,591,0,0,3,0,3,7121
1,5,12,924,591,0,0,3,0,3,5931
1,5,12,924,591,0,0,3,0,3,5693
1,5,12,924,591,0,0,3,0,3,5621
1,5,12,924,591,0,0,3,0,3,5704
1,5,12,924,591,0,0,3,0,3,5627
1,5,12,924,591,0,0,3,0,3,5640
1,5,12,924,591,0,0,3,0,3,5626
1,5,12,924,591,0,0,3,0,3,5706
1,5,12,924,591,0,0,3,0,3,5751
1,5,12,924,591,0,0,3,0,3,5707
1,5,12,924,591,0,0,3,0,3,5589
1,5,12,924,591,0,0,3,0,3,5606
1,5,12,924,591,0,0,3,0,3,5736
1,5,12,924,591,0,0,3,0,3,5585
1,5,12,924,591,0,0,3,0,3,5644
1,5,12,924,591,0,0,3,0,3,5624
1,5,12,924,591,0,0,3,0,3,5566
1,5,12,924,591,0,0,3,0,3,5569
1,5,12,924,591,0,0,3,0,3,5666
1,5,12,924,591,0,0,3,0,3,5516
1,5,12,924,591,0,0,3,0,3,5587
1,5,12,924,591,0,0,3,0,3,5521
1,5,12,924,591,0,0,3,0,3,5556
1,5,12,924,591,0,0,3,0,3,5586
1,5,12,924,591,0,0,3,0,3,5765
1,5,12,924,591,0,0,3,0,3,5595
1,5,12,924,591,0,0,3,0,3,5471
1,5,12,924,591,0,0,3,0,3,5472
1,5,12,924,591,0,0,3,0,3,5521
1,5,12,924,591,0,0,3,0,3,5624
1,5,12,924,591,0,0,3,0,3,5533
1,5,12,924,591,0,0,3,0,3,5384
1,5,12,924,591,0,0,3,0,3,5520
1,5,12,924,591,0,0,3,0,3,5355
1,5,12,924,591,0,0,3,0,3,5567
1,5,12,924,591,0,0,3,0,3,5550
1,5,12,924,591,0,0,3,0,3,5434
1,5,12,924,591,0,0,3,0,3,5421
1,5,12,924,591,0,0,3,0,3,5404
1,5,12,924,591,0,0,3,0,3,5507
1,5,12,924,591,0,0,3,0,3,5501
1,5,12,924,591,0,0,3,0,3,5490
1,5,12,924,591,0,0,3,0,3,5766
1,5,12,924,591,0,0,3,0,3,5475
1,5,12,924,591,0,0,3,0,3,5431
1,5,12,924,591,0,0,3,0,3,5479
1,5,12,924,591,0,0,3,0,3,5707
1,5,12,924,591,0,0,3,0,3,5577
1,5,12,924,591,0,0,3,0,3,5716
1,5,12,924,591,0,0,3,0,3,5549
1,5,12,924,591,0,0,3,0,3,5462
1,5,12,924,591,0,0,3,0,3,5482
1,5,12,924,591,0,0,3,0,3,5577
1,5,12,924,591,0,0,3,0,3,5650
1,5,12,924,591,0,0,3,0,3,5550
1,5,12,924,591,0,0,3,0,3,5456
1,5,12,924,591,0,0,3,0,3,5491
1,5,12,924,591,0,0,3,0,3,5545
1,5,12,924,591,0,0,3,0,3,5447
1,5,12,924,591,0,0,3,0,3,5462
1,5,12,924,591,0,0,3,0,3,5377
1,5,12,924,591,0,0,3,0,3,5499
1,5,12,924,591,0,0,3,0,3,5474
1,5,12,924,591,0,0,3,0,3,5567
1,5,12,924,591,0,0,3,0,3,5385
1,5,12,924,591,0,0,3,0,3,5518
1,5,12,924,591,0,0,3,0,3,5505
1,5,12,924,591,0,0,3,0,3,5519
1,5,12,924,591,0,0,3,0,3,5526
1,5,12,924,591,0,0,3,0,3,5507
1,5,12,924,591,0,0,3,0,3,5492
1,5,12,924,591,0,0,3,0,3,5451
1,5,12,924,591,0,0,3,0,3,5619
1,5,12,924,591,0,0,3,0,3,5413
1,5,12,924,591,0,0,3,0,3,5418
1,5,12,924,591,0,0,3,0,3,5359
1,5,12,924,591,0,0,3,0,3,5431
1,5,12,924,591,0,0,3,0,3,5493
1,5,12,924,591,0,0,3,0,3,5383
1,5,12,924,591,0,0,3,0,3,5388
1,5,12,924,591,0,0,3,0,3,5507
1,5,12,924,591,0,0,3,0,3,5385
1,5,12,924,591,0,0,3,0,3,5372
1,5,12,924,591,0,0,3,0,3,5493
1,5,12,924,591,0,0,3,0,3,5396
1,5,12,924,591,0,0,3,0,3,5390
1,5,12,924,591,0,0,3,0,3,5401
1,5,12,924,591,0,0,3,0,3,5366
1,5,12,924,591,0,0,3,0,3,5438
1,5,12,924,591,0,0,3,0,3,5456
1,5,12,924,591,0,0,3,0,3,5438
1,5,12,924,591,0,0,3,0,3,5513
1,5,12,924,591,0,0,3,0,3,5498
1,5,12,924,591,0,0,3,0,3,5372
1,5,12,924,591,0,0,3,0,3,5509
1,5,12,924,591,0,0,3,0,3,5414
1,5,12,924,591,0,0,3,0,3,5375
1,5,12,924,591,0,0,3,0,3,5419
4,3,12,1179,1179,0,0,0,0,5,4255
4,3,12,1179,1179,0,0,0,0,5,3844
4,3,12,1179,1179,0,0,0,0,5,2423
4,3,12,1179,1179,0,0,0,0,5,2256
4,3,12,1179,1179,0,0,0,0,5,2116
4,3,12,1179,1179,0,0,0,0,5,2111
4,3,12,1179,1179,0,0,0,0,5,2073
4,3,12,1179,1179,0,0,0,0,5,2143
4,3,12,1179,1179,0,0,0,0,5,2082
4,3,12,1179,1179,0,0,0,0,5,2057
4,3,12,1179,1179,0,0,0,0,5,2107
4,3,12,1179,1179,0,0,0,0,5,2167
4,3,12,1179,1179,0,0,0,0,5,2155
4,3,12,1179,1179,0,0,0,0,5,2112
4,3,12,1179,1179,0,0,0,0,5,2094
4,3,12,1179,1179,0,0,0,0,5,2102
4,3,12,1179,1179,0,0,0,0,5,2126
4,3,12,1179,1179,0,0,0,0,5,2145
4,3,12,1179,1179,0,0,0,0,5,2094
4,3,12,1179,1179,0,0,0,0,5,2040
4,3,12,1179,1179,0,0,0,0,5,2112
4,3,12,1179,1179,0,0,0,0,5,2069
4,3,12,1179,1179,0,0,0,0,5,2150
4,3,12,1179,1179,0,0,0,0,5,2088
4,3,12,1179,1179,0,0,0,0,5,2200
4,3,12,1179,1179,0,0,0,0,5,2095
4,3,12,1179,1179,0,0,0,0,5,2087
4,3,12,1179,1179,0,0,0,0,5,2077
4,3,12,1179,1179,0,0,0,0,5,2138
4,3,12,1179,1179,0,0,0,0,5,2090
4,3,12,1179,1179,0,0,0,0,5,2153
4,3,12,1179,1179,0,0,0,0,5,2035
4,3,12,1179,1179,0,0,0,0,5,2130
4,3,12,1179,1179,0,0,0,0,5,2098
4,3,12,1179,1179,0,0,0,0,5,2172
4,3,12,1179,1179,0,0,0,0,5,2061
4,3,12,1179,1179,0,0,0,0,5,2156
4,3,12,1179,1179,0,0,0,0,5,2255
4,3,12,1179,1179,0,0,0,0,5,2224
4,3,12,1179,1179,0,0,0,0,5,2169
4,3,12,1179,1179,0,0,0,0,5,2098
4,3,12,1179,1179,0,0,0,0,5,2025
4,3,12,1179,1179,0,0,0,0,5,2073
4,3,12,1179,1179,0,0,0,0,5,2029
4,3,12,1179,1179,0,0,0,0,5,2059
4,3,12,1179,1179,0,0,0,0,5,2038
4,3,12,1179,1179,0,0,0,0,5,2067
4,3,12,1179,1179,0,0,0,0,5,2032
4,3,12,1179,1179,0,0,0,0,5,2048
4,3,12,1179,1179,0,0,0,0,5,2161
4,3,12,1179,1179,0,0,0,0,5,2066
4,3,12,1179,1179,0,0,0,0,5,2076
4,3,12,1179,1179,0,0,0,0,5,2161
4,3,12,1179,1179,0,0,0,0,5,2093
4,3,12,1179,1179,0,0,0,0,5,2099
4,3,12,1179,1179,0,0,0,0,5,2052
4,3,12,1179,1179,0,0,0,0,5,2147
4,3,12,1179,1179,0,0,0,0,5,2128
4,3,12,1179,1179,0,0,0,0,5,2119
4,3,12,1179,1179,0,0,0,0,5,2101
4,3,12,1179,1179,0,0,0,0,5,2119
4,3,12,1179,1179,0,0,0,0,5,2166
4,3,12,1179,1179,0,0,0,0,5,2112
4,3,12,1179,1179,0,0,0,0,5,2085
4,3,12,1179,1179,0,0,0,0,5,2040
4,3,12,1179,1179,0,0,0,0,5,2034
4,3,12,1179,1179,0,0,0,0,5,2104
4,3,12,1179,1179,0,0,0,0,5,2114
4,3,12,1179,1179,0,0,0,0,5,2084
4,3,12,1179,1179,0,0,0,0,5,2088
4,3,12,1179,1179,0,0,0,0,5,2141
4,3,12,1179,1179,0,0,0,0,5,2168
4,3,12,1179,1179,0,0,0,0,5,2121
4,3,12,1179,1179,0,0,0,0,5,2025
4,3,12,1179,1179,0,0,0,0,5,2044
4,3,12,1179,1179,0,0,0,0,5,2152
4,3,12,1179,1179,0,0,0,0,5,2084
4,3,12,1179,1179,0,0,0,0,5,2043
4,3,12,1179,1179,0,0,0,0,5,2061
4,3,12,1179,1179,0,0,0,0,5,2067
4,3,12,1179,1179,0,0,0,0,5,2117
4,3,12,1179,1179,0,0,0,0,5,2058
4,3,12,1179,1179,0,0,0,0,5,2090
4,3,12,1179,1179,0,0,0,0,5,2005
4,3,12,1179,1179,0,0,0,0,5,2115
4,3,12,1179,1179,0,0,0,0,5,2070
4,3,12,1179,1179,0,0,0,0,5,2127
4,3,12,1179,1179,0,0,0,0,5,2060
4,3,12,1179,1179,0,0,0,0,5,2084
4,3,12,1179,1179,0,0,0,0,5,2021
4,3,12,1179,1179,0,0,0,0,5,2047
4,3,12,1179,1179,0,0,0,0,5,2070
4,3,12,1179,1179,0,0,0,0,5,2032
4,3,12,1179,1179,0,0,0,0,5,2161
4,3,12,1179,1179,0,0,0,0,5,2030
4,3,12,1179,1179,0,0,0,0,5,2024
4,3,12,1179,1179,0,0,0,0,5,2033
4,3,12,1179,1179,0,0,0,0,5,2058
4,3,12,1179,1179,0,0,0,0,5,2031
4,3,12,1179,1179,0,0,0,0,5,2047
6,2,12,2263,2263,0,0,0,0,7,2942
6,2,12,2263,2263,0,0,0,0,7,2790
6,2,12,2263,2263,0,0,0,0,7,1749
6,2,12,2263,2263,0,0,0,0,7,1593
6,2,12,2263,2263,0,0,0,0,7,1498
6,2,12,2263,2263,0,0,0,0,7,1457
6,2,12,2263,2263,0,0,0,0,7,1473
6,2,12,2263,2263,0,0,0,0,7,1460
6,2,12,2263,2263,0,0,0,0,7,1471
6,2,12,2263,2263,0,0,0,0,7,1493
6,2,12,2263,2263,0,0,0,0,7,1457
6,2,12,2263,2263,0,0,0,0,7,1502
6,2,12,2263,2263,0,0,0,0,7,1419
6,2,12,2263,2263,0,0,0,0,7,1439
6,2,12,2263,2263,0,0,0,0,7,1420
6,2,12,2263,2263,0,0,0,0,7,1476
6,2,12,2263,2263,0,0,0,0,7,1410
6,2,12,2263,2263,0,0,0,0,7,1489
6,2,12,2263,2263,0,0,0,0,7,1480
6,2,12,2263,2263,0,0,0,0,7,1456
6,2,12,2263,2263,0,0,0,0,7,1491
6,2,12,2263,2263,0,0,0,0,7,1563
6,2,12,2263,2263,0,0,0,0,7,1517
6,2,12,2263,2263,0,0,0,0,7,1534
6,2,12,2263,2263,0,0,0,0,7,1562
6,2,12,2263,2263,0,0,0,0,7,1429
6,2,12,2263,2263,0,0,0,0,7,1411
6,2,12,2263,2263,0,0,0,0,7,1417
6,2,12,2263,2263,0,0,0,0,7,1390
6,2,12,2263,2263,0,0,0,0,7,1480
6,2,12,2263,2263,0,0,0,0,7,1416
6,2,12,2263,2263,0,0,0,0,7,1406
6,2,12,2263,2263,0,0,0,0,7,1603
6,2,12,2263,2263,0,0,0,0,7,1504
6,2,12,2263,2263,0,0,0,0,7,1473
6,2,12,2263,2263,0,0,0,0,7,1448
6,2,12,2263,2263,0,0,0,0,7,1504
6,2,12,2263,2263,0,0,0,0,7,1448
6,2,12,2263,2263,0,0,0,0,7,1452
6,2,12,2263,2263,0,0,0,0,7,1428
6,2,12,2263,2263,0,0,0,0,7,1486
6,2,12,2263,2263,0,0,0,0,7,1473
6,2,12,2263,2263,0,0,0,0,7,1410
6,2,12,2263,2263,0,0,0,0,7,1439
6,2,12,2263,2263,0,0,0,0,7,1420
6,2,12,2263,2263,0,0,0,0,7,1483
6,2,12,2263,2263,0,0,0,0,7,1477
6,2,12,2263,2263,0,0,0,0,7,1438
6,2,12,2263,2263,0,0,0,0,7,1466
6,2,12,2263,2263,0,0,0,0,7,1472
6,2,12,2263,2263,0,0,0,0,7,1490
6,2,12,2263,2263,0,0,0,0,7,1506
6,2,12,2263,2263,0,0,0,0,7,1413
6,2,12,2263,2263,0,0,0,0,7,1425
6,2,12,2263,2263,0,0,0,0,7,1419
6,2,12,2263,2263,0,0,0,0,7,1428
6,2,12,2263,2263,0,0,0,0,7,1529
6,2,12,2263,2263,0,0,0,0,7,1460
6,2,12,2263,2263,0,0,0,0,7,1384
6,2,12,2263,2263,0,0,0,0,7,1459
6,2,12,2263,2263,0,0,0,0,7,1407
6,2,12,2263,2263,0,0,0,0,7,1505
6,2,12,2263,2263,0,0,0,0,7,1494
6,2,12,2263,2263,0,0,0,0,7,1461
6,2,12,2263,2263,0,0,0,0,7,1488
6,2,12,2263,2263,0,0,0,0,7,1521
6,2,12,2263,2263,0,0,0,0,7,1495
6,2,12,2263,2263,0,0,0,0,7,1423
6,2,12,2263,2263,0,0,0,0,7,1395
6,2,12,2263,2263,0,0,0,0,7,1428
6,2,12,2263,2263,0,0,0,0,7,1418
6,2,12,2263,2263,0,0,0,0,7,1433
6,2,12,2263,2263,0,0,0,0,7,1477
6,2,12,2263,2263,0,0,0,0,7,1479
6,2,12,2263,2263,0,0,0,0,7,1451
6,2,12,2263,2263,0,0,0,0,7,1427
6,2,12,2263,2263,0,0,0,0,7,1452
6,2,12,2263,2263,0,0,0,0,7,1455
6,2,12,2263,2263,0,0,0,0,7,1455
6,2,12,2263,2263,0,0,0,0,7,1432
6,2,12,2263,2263,0,0,0,0,7,1462
6,2,12,2263,2263,0,0,0,0,7,1512
6,2,12,2263,2263,0,0,0,0,7,1420
6,2,12,2263,2263,0,0,0,0,7,1415
6,2,12,2263,2263,0,0,0,0,7,1490
6,2,12,2263,2263,0,0,0,0,7,1450
6,2,12,2263,2263,0,0,0,0,7,1437
6,2,12,2263,2263,0,0,0,0,7,1495
6,2,12,2263,2263,0,0,0,0,7,1485
6,2,12,2263,2263,0,0,0,0,7,1433
6,2,12,2263,2263,0,0,0,0,7,1429
6,2,12,2263,2263,0,0,0,0,7,1431
6,2,12,2263,2263,0,0,0,0,7,1452
6,2,12,2263,2263,0,0,0,0,7,1388
6,2,12,2263,2263,0,0,0,0,7,1401
6,2,12,2263,2263,0,0,0,0,7,1442
6,2,12,2263,2263,0,0,0,0,7,1395
6,2,12,2263,2263,0,0,0,0,7,1418
6,2,12,2263,2263,0,0,0,0,7,1464
6,2,12,2263,2263,0,0,0,0,7,1408
5,4,12,1511,1511,0,0,0,0,6,5098
5,4,12,1511,1511,0,0,0,0,6,4967
5,4,12,1511,1511,0,0,0,0,6,2878
5,4,12,1511,1511,0,0,0,0,6,2817
5,4,12,1511,1511,0,0,0,0,6,2643
5,4,12,1511,1511,0,0,0,0,6,2623
5,4,12,1511,1511,0,0,0,0,6,2643
5,4,12,1511,1511,0,0,0,0,6,2636
5,4,12,1511,1511,0,0,0,0,6,2682
5,4,12,1511,1511,0,0,0,0,6,2691
5,4,12,1511,1511,0,0,0,0,6,2744
5,4,12,1511,1511,0,0,0,0,6,2621
5,4,12,1511,1511,0,0,0,0,6,2613
5,4,12,1511,1511,0,0,0,0,6,2615
5,4,12,1511,1511,0,0,0,0,6,2770
5,4,12,1511,1511,0,0,0,0,6,2742
5,4,12,1511,1511,0,0,0,0,6,2628
5,4,12,1511,1511,0,0,0,0,6,2684
5,4,12,1511,1511,0,0,0,0,6,2619
5,4,12,1511,1511,0,0,0,0,6,2650
5,4,12,1511,1511,0,0,0,0,6,2685
5,4,12,1511,1511,0,0,0,0,6,2799
5,4,12,1511,1511,0,0,0,0,6,2660
5,4,12,1511,1511,0,0,0,0,6,2650
5,4,12,1511,1511,0,0,0,0,6,2689
5,4,12,1511,1511,0,0,0,0,6,2667
5,4,12,1511,1511,0,0,0,0,6,2625
5,4,12,1511,1511,0,0,0,0,6,2676
5,4,12,1511,1511,0,0,0,0,6,2738
5,4,12,1511,1511,0,0,0,0,6,2723
5,4,12,1511,1511,0,0,0,0,6,2651
5,4,12,1511,1511,0,0,0,0,6,2638
5,4,12,1511,1511,0,0,0,0,6,2615
5,4,12,1511,1511,0,0,0,0,6,2718
5,4,12,1511,1511,0,0,0,0,6,2696
5,4,12,1511,1511,0,0,0,0,6,2657
5,4,12,1511,1511,0,0,0,0,6,2672
5,4,12,1511,1511,0,0,0,0,6,2772
5,4,12,1511,1511,0,0,0,0,6,2636
5,4,12,1511,1511,0,0,0,0,6,2617
5,4,12,1511,1511,0,0,0,0,6,2733
5,4,12,1511,1511,0,0,0,0,6,2783
5,4,12,1511,1511,0,0,0,0,6,2669
5,4,12,1511,1511,0,0,0,0,6,2736
5,4,12,1511,1511,0,0,0,0,6,2614
5,4,12,1511,1511,0,0,0,0,6,2646
5,4,12,1511,1511,0,0,0,0,6,2664
5,4,12,1511,1511,0,0,0,0,6,2624
5,4,12,1511,1511,0,0,0,0,6,2705
5,4,12,1511,1511,0,0,0,0,6,2594
5,4,12,1511,1511,0,0,0,0,6,2606
5,4,12,1511,1511,0,0,0,0,6,2636
5,4,12,1511,1511,0,0,0,0,6,2641
5,4,12,1511,1511,0,0,0,0,6,2594
5,4,12,1511,1511,0,0,0,0,6,2692
5,4,12,1511,1511,0,0,0,0,6,2687
5,4,12,1511,1511,0,0,0,0,6,2714
5,4,12,1511,1511,0,0,0,0,6,2606
5,4,12,1511,1511,0,0,0,0,6,2628
5,4,12,1511,1511,0,0,0,0,6,2591
5,4,12,1511,1511,0,0,0,0,6,2608
5,4,12,1511,1511,0,0,0,0,6,2564
5,4,12,1511,1511,0,0,0,0,6,2596
5,4,12,1511,1511,0,0,0,0,6,2704
5,4,12,1511,1511,0,0,0,0,6,2638
5,4,12,1511,1511,0,0,0,0,6,2629
5,4,12,1511,1511,0,0,0,0,6,2707
5,4,12,1511,1511,0,0,0,0,6,2720
5,4,12,1511,1511,0,0,0,0,6,2661
5,4,12,1511,1511,0,0,0,0,6,2703
5,4,12,1511,1511,0,0,0,0,6,2679
5,4,12,1511,1511,0,0,0,0,6,2612
5,4,12,1511,1511,0,0,0,0,6,2605
5,4,12,1511,1511,0,0,0,0,6,2599
5,4,12,1511,1511,0,0,0,0,6,2712
5,4,12,1511,1511,0,0,0,0,6,2643
5,4,12,1511,1511,0,0,0,0,6,2723
5,4,12,1511,1511,0,0,0,0,6,2602
5,4,12,1511,1511,0,0,0,0,6,2649
5,4,12,1511,1511,0,0,0,0,6,2637
5,4,12,1511,1511,0,0,0,0,6,2668
5,4,12,1511,1511,0,0,0,0,6,2622
5,4,12,1511,1511,0,0,0,0,6,2609
5,4,12,1511,1511,0,0,0,0,6,2578
5,4,12,1511,1511,0,0,0,0,6,2639
5,4,12,1511,1511,0,0,0,0,6,2600
5,4,12,1511,1511,0,0,0,0,6,2618
5,4,12,1511,1511,0,0,0,0,6,2702
5,4,12,1511,1511,0,0,0,0,6,2592
5,4,12,1511,1511,0,0,0,0,6,2572
5,4,12,1511,1511,0,0,0,0,6,2640
5,4,12,1511,1511,0,0,0,0,6,2581
5,4,12,1511,1511,0,0,0,0,6,2637
5,4,12,1511,1511,0,0,0,0,6,2616
5,4,12,1511,1511,0,0,0,0,6,2642
5,4,12,1511,1511,0,0,0,0,6,2590
5,4,12,1511,1511,0,0,0,0,6,2644
5,4,12,1511,1511,0,0,0,0,6,2619
5,4,12,1511,1511,0,0,0,0,6,2649
5,4,12,1511,1511,0,0,0,0,6,2707
10,0,12,2185,2185,0,0,0,0,10,1296
10,0,12,2185,2185,0,0,0,0,10,1056
10,0,12,2185,2185,0,0,0,0,10,742
10,0,12,2185,2185,0,0,0,0,10,684
10,0,12,2185,2185,0,0,0,0,10,634
10,0,12,2185,2185,0,0,0,0,10,626
10,0,12,2185,2185,0,0,0,0,10,656
10,0,12,2185,2185,0,0,0,0,10,569
10,0,12,2185,2185,0,0,0,0,10,601
10,0,12,2185,2185,0,0,0,0,10,562
10,0,12,2185,2185,0,0,0,0,10,575
10,0,12,2185,2185,0,0,0,0,10,588
10,0,12,2185,2185,0,0,0,0,10,579
10,0,12,2185,2185,0,0,0,0,10,556
10,0,12,2185,2185,0,0,0,0,10,568
10,0,12,2185,2185,0,0,0,0,10,568
10,0,12,2185,2185,0,0,0,0,10,599
10,0,12,2185,2185,0,0,0,0,10,613
10,0,12,2185,2185,0,0,0,0,10,559
10,0,12,2185,2185,0,0,0,0,10,607
10,0,12,2185,2185,0,0,0,0,10,576
10,0,12,2185,2185,0,0,0,0,10,576
10,0,12,2185,2185,0,0,0,0,10,589
10,0,12,2185,2185,0,0,0,0,10,597
10,0,12,2185,2185,0,0,0,0,10,595
10,0,12,2185,2185,0,0,0,0,10,594
10,0,12,2185,2185,0,0,0,0,10,591
10,0,12,2185,2185,0,0,0,0,10,591
10,0,12,2185,2185,0,0,0,0,10,573
10,0,12,2185,2185,0,0,0,0,10,570
10,0,12,2185,2185,0,0,0,0,10,571
10,0,12,2185,2185,0,0,0,0,10,575
10,0,12,2185,2185,0,0,0,0,10,570
10,0,12,2185,2185,0,0,0,0,10,594
10,0,12,2185,2185,0,0,0,0,10,564
10,0,12,2185,2185,0,0,0,0,10,558
10,0,12,2185,2185,0,0,0,0,10,595
10,0,12,2185,2185,0,0,0,0,10,571
10,0,12,2185,2185,0,0,0,0,10,585
10,0,12,2185,2185,0,0,0,0,10,586
10,0,12,2185,2185,0,0,0,0,10,590
10,0,12,2185,2185,0,0,0,0,10,633
10,0,12,2185,2185,0,0,0,0,10,607
10,0,12,2185,2185,0,0,0,0,10,604
10,0,12,2185,2185,0,0,0,0,10,589
10,0,12,2185,2185,0,0,0,0,10,601
10,0,12,2185,2185,0,0,0,0,10,546
10,0,12,2185,2185,0,0,0,0,10,568
10,0,12,2185,2185,0,0,0,0,10,549
10,0,12,2185,2185,0,0,0,0,10,552
10,0,12,2185,2185,0,0,0,0,10,568
10,0,12,2185,2185,0,0,0,0,10,570
10,0,12,2185,2185,0,0,0,0,10,562
10,0,12,2185,2185,0,0,0,0,10,540
10,0,12,2185,2185,0,0,0,0,10,537
10,0,12,2185,2185,0,0,0,0,10,550
10,0,12,2185,2185,0,0,0,0,10,558
10,0,12,2185,2185,0,0,0,0,10,556
10,0,12,2185,2185,0,0,0,0,10,552
10,0,12,2185,2185,0,0,0,0,10,530
10,0,12,2185,2185,0,0,0,0,10,547
10,0,12,2185,2185,0,0,0,0,10,539
10,0,12,2185,2185,0,0,0,0,10,542
10,0,12,2185,2185,0,0,0,0,10,540
10,0,12,2185,2185,0,0,0,0,10,558
10,0,12,2185,2185,0,0,0,0,10,562
10,0,12,2185,2185,0,0,0,0,10,563
10,0,12,2185,2185,0,0,0,0,10,571
10,0,12,2185,2185,0,0,0,0,10,593
10,0,12,2185,2185,0,0,0,0,10,537
10,0,12,2185,2185,0,0,0,0,10,570
10,0,12,2185,2185,0,0,0,0,10,563
10,0,12,2185,2185,0,0,0,0,10,554
10,0,12,2185,2185,0,0,0,0,10,553
10,0,12,2185,2185,0,0,0,0,10,557
10,0,12,2185,2185,0,0,0,0,10,547
10,0,12,2185,2185,0,0,0,0,10,605
10,0,12,2185,2185,0,0,0,0,10,552
10,0,12,2185,2185,0,0,0,0,10,545
10,0,12,2185,2185,0,0,0,0,10,567
10,0,12,2185,2185,0,0,0,0,10,572
10,0,12,2185,2185,0,0,0,0,10,571
10,0,12,2185,2185,0,0,0,0,10,567
10,0,12,2185,2185,0,0,0,0,10,578
10,0,12,2185,2185,0,0,0,0,10,569
10,0,12,2185,2185,0,0,0,0,10,578
10,0,12,2185,2185,0,0,0,0,10,601
10,0,12,2185,2185,0,0,0,0,10,565
10,0,12,2185,2185,0,0,0,0,10,563
10,0,12,2185,2185,0,0,0,0,10,555
10,0,12,2185,2185,0,0,0,0,10,559
10,0,12,2185,2185,0,0,0,0,10,579
10,0,12,2185,2185,0,0,0,0,10,584
10,0,12,2185,2185,0,0,0,0,10,603
10,0,12,2185,2185,0,0,0,0,10,575
10,0,12,2185,2185,0,0,0,0,10,549
10,0,12,2185,2185,0,0,0,0,10,568
10,0,12,2185,2185,0,0,0,0,10,575
10,0,12,2185,2185,0,0,0,0,10,580
10,0,12,2185,2185,0,0,0,0,10,561
2,9,12,2973,2126,3,0,1,0,7,31646
2,9,12,2973,2126,3,0,1,0,7,23716
2,9,12,2973,2126,3,0,1,0,7,22742
2,9,12,2973,2126,3,0,1,0,7,22759
2,9,12,2973,2126,3,0,1,0,7,22672
2,9,12,2973,2126,3,0,1,0,7,22593
2,9,12,2973,2126,3,0,1,0,7,37757
2,9,12,2973,2126,3,0,1,0,7,33998
2,9,12,2973,2126,3,0,1,0,7,22442
2,9,12,2973,2126,3,0,1,0,7,22337
2,9,12,2973,2126,3,0,1,0,7,22437
2,9,12,2973,2126,3,0,1,0,7,22545
2,9,12,2973,2126,3,0,1,0,7,22272
2,9,12,2973,2126,3,0,1,0,7,22207
2,9,12,2973,2126,3,0,1,0,7,22405
2,9,12,2973,2126,3,0,1,0,7,22270
2,9,12,2973,2126,3,0,1,0,7,22486
2,9,12,2973,2126,3,0,1,0,7,22479
2,9,12,2973,2126,3,0,1,0,7,22319
2,9,12,2973,2126,3,0,1,0,7,22244
2,9,12,2973,2126,3,0,1,0,7,22259
2,9,12,2973,2126,3,0,1,0,7,22352
2,9,12,2973,2126,3,0,1,0,7,22572
2,9,12,2973,2126,3,0,1,0,7,22202
2,9,12,2973,2126,3,0,1,0,7,22384
2,9,12,2973,2126,3,0,1,0,7,22285
2,9,12,2973,2126,3,0,1,0,7,22347
2,9,12,2973,2126,3,0,1,0,7,22353
2,9,12,2973,2126,3,0,1,0,7,22326
2,9,12,2973,2126,3,0,1,0,7,22427
2,9,12,2973,2126,3,0,1,0,7,22172
2,9,12,2973,2126,3,0,1,0,7,22233
2,9,12,2973,2126,3,0,1,0,7,22409
2,9,12,2973,2126,3,0,1,0,7,23310
2,9,12,2973,2126,3,0,1,0,7,28652
2,9,12,2973,2126,3,0,1,0,7,22595
2,9,12,2973,2126,3,0,1,0,7,22365
2,9,12,2973,2126,3,0,1,0,7,22550
2,9,12,2973,2126,3,0,1,0,7,22453
2,9,12,2973,2126,3,0,1,0,7,22218
2,9,12,2973,2126,3,0,1,0,7,22090
2,9,12,2973,2126,3,0,1,0,7,22160
2,9,12,2973,2126,3,0,1,0,7,22311
2,9,12,2973,2126,3,0,1,0,7,22339
2,9,12,2973,2126,3,0,1,0,7,22123
2,9,12,2973,2126,3,0,1,0,7,22150
2,9,12,2973,2126,3,0,1,0,7,22059
2,9,12,2973,2126,3,0,1,0,7,22308
2,9,12,2973,2126,3,0,1,0,7,22263
2,9,12,2973,2126,3,0,1,0,7,22341
2,9,12,2973,2126,3,0,1,0,7,22119
2,9,12,2973,2126,3,0,1,0,7,21962
2,9,12,2973,2126,3,0,1,0,7,22348
2,9,12,2973,2126,3,0,1,0,7,22138
2,9,12,2973,2126,3,0,1,0,7,22045
2,9,12,2973,2126,3,0,1,0,7,22039
2,9,12,2973,2126,3,0,1,0,7,22006
2,9,12,2973,2126,3,0,1,0,7,22075
2,9,12,2973,2126,3,0,1,0,7,22065
2,9,12,2973,2126,3,0,1,0,7,22117
2,9,12,2973,2126,3,0,1,0,7,22139
2,9,12,2973,2126,3,0,1,0,7,22142
2,9,12,2973,2126,3,0,1,0,7,22275
2,9,12,2973,2126,3,0,1,0,7,22329
2,9,12,2973,2126,3,0,1,0,7,22204
2,9,12,2973,2126,3,0,1,0,7,22384
2,9,12,2973,2126,3,0,1,0,7,22214
2,9,12,2973,2126,3,0,1,0,7,22309
2,9,12,2973,2126,3,0,1,0,7,22151
2,9,12,2973,2126,3,0,1,0,7,22232
2,9,12,2973,2126,3,0,1,0,7,22085
2,9,12,2973,2126,3,0,1,0,7,22301
2,9,12,2973,2126,3,0,1,0,7,22130
2,9,12,2973,2126,3,0,1,0,7,22342
2,9,12,2973,2126,3,0,1,0,7,22082
2,9,12,2973,2126,3,0,1,0,7,22374
2,9,12,2973,2126,3,0,1,0,7,22089
2,9,12,2973,2126,3,0,1,0,7,22107
2,9,12,2973,2126,3,0,1,0,7,22051
2,9,12,2973,2126,3,0,1,0,7,22123
2,9,12,2973,2126,3,0,1,0,7,22210
2,9,12,2973,2126,3,0,1,0,7,22415
2,9,12,2973,2126,3,0,1,0,7,27633
2,9,12,2973,2126,3,0,1,0,7,43342
2,9,12,2973,2126,3,0,1,0,7,41014
2,9,12,2973,2126,3,0,1,0,7,45015
2,9,12,2973,2126,3,0,1,0,7,23773
2,9,12,2973,2126,3,0,1,0,7,33081
2,9,12,2973,2126,3,0,1,0,7,23409
2,9,12,2973,2126,3,0,1,0,7,34432
2,9,12,2973,2126,3,0,1,0,7,22172
2,9,12,2973,2126,3,0,1,0,7,22116
2,9,12,2973,2126,3,0,1,0,7,22141
2,9,12,2973,2126,3,0,1,0,7,22163
2,9,12,2973,2126,3,0,1,0,7,22343
2,9,12,2973,2126,3,0,1,0,7,22230
2,9,12,2973,2126,3,0,1,0,7,22079
2,9,12,2973,2126,3,0,1,0,7,22103
2,9,12,2973,2126,3,0,1,0,7,21992
2,9,12,2973,2126,3,0,1,0,7,22122
6,6,12,4711,4147,4,0,1,0,11,21444
6,6,12,4711,4147,4,0,1,0,11,14607
6,6,12,4711,4147,4,0,1,0,11,13870
6,6,12,4711,4147,4,0,1,0,11,13968
6,6,12,4711,4147,4,0,1,0,11,13814
6,6,12,4711,4147,4,0,1,0,11,13752
6,6,12,4711,4147,4,0,1,0,11,13628
6,6,12,4711,4147,4,0,1,0,11,13939
6,6,12,4711,4147,4,0,1,0,11,14233
6,6,12,4711,4147,4,0,1,0,11,13689
6,6,12,4711,4147,4,0,1,0,11,13795
6,6,12,4711,4147,4,0,1,0,11,13944
6,6,12,4711,4147,4,0,1,0,11,14030
6,6,12,4711,4147,4,0,1,0,11,13880
6,6,12,4711,4147,4,0,1,0,11,13918
6,6,12,4711,4147,4,0,1,0,11,13869
6,6,12,4711,4147,4,0,1,0,11,13682
6,6,12,4711,4147,4,0,1,0,11,13684
6,6,12,4711,4147,4,0,1,0,11,13920
6,6,12,4711,4147,4,0,1,0,11,13830
6,6,12,4711,4147,4,0,1,0,11,13734
6,6,12,4711,4147,4,0,1,0,11,13614
6,6,12,4711,4147,4,0,1,0,11,13854
6,6,12,4711,4147,4,0,1,0,11,13998
6,6,12,4711,4147,4,0,1,0,11,13850
6,6,12,4711,4147,4,0,1,0,11,13818
6,6,12,4711,4147,4,0,1,0,11,13839
6,6,12,4711,4147,4,0,1,0,11,13785
6,6,12,4711,4147,4,0,1,0,11,13707
6,6,12,4711,4147,4,0,1,0,11,13748
6,6,12,4711,4147,4,0,1,0,11,13789
6,6,12,4711,4147,4,0,1,0,11,13679
6,6,12,4711,4147,4,0,1,0,11,13926
6,6,12,4711,4147,4,0,1,0,11,14024
6,6,12,4711,4147,4,0,1,0,11,14058
6,6,12,4711,4147,4,0,1,0,11,13895
6,6,12,4711,4147,4,0,1,0,11,13802
6,6,12,4711,4147,4,0,1,0,11,13773
6,6,12,4711,4147,4,0,1,0,11,13786
6,6,12,4711,4147,4,0,1,0,11,13839
6,6,12,4711,4147,4,0,1,0,11,13654
6,6,12,4711,4147,4,0,1,0,11,13706
6,6,12,4711,4147,4,0,1,0,11,13717
6,6,12,4711,4147,4,0,1,0,11,13622
6,6,12,4711,4147,4,0,1,0,11,13722
6,6,12,4711,4147,4,0,1,0,11,13748
6,6,12,4711,4147,4,0,1,0,11,13811
6,6,12,4711,4147,4,0,1,0,11,13623
6,6,12,4711,4147,4,0,1,0,11,13869
6,6,12,4711,4147,4,0,1,0,11,13741
6,6,12,4711,4147,4,0,1,0,11,13545
6,6,12,4711,4147,4,0,1,0,11,13658
6,6,12,4711,4147,4,0,1,0,11,14066
6,6,12,4711,4147,4,0,1,0,11,13890
6,6,12,4711,4147,4,0,1,0,11,13786
6,6,12,4711,4147,4,0,1,0,11,13915
6,6,12,4711,4147,4,0,1,0,11,13631
6,6,12,4711,4147,4,0,1,0,11,13718
6,6,12,4711,4147,4,0,1,0,11,13625
6,6,12,4711,4147,4,0,1,0,11,13811
6,6,12,4711,4147,4,0,1,0,11,13706
6,6,12,4711,4147,4,0,1,0,11,13749
6,6,12,4711,4147,4,0,1,0,11,13946
6,6,12,4711,4147,4,0,1,0,11,13686
6,6,12,4711,4147,4,0,1,0,11,13577
6,6,12,4711,4147,4,0,1,0,11,13996
6,6,12,4711,4147,4,0,1,0,11,13790
6,6,12,4711,4147,4,0,1,0,11,13708
6,6,12,4711,4147,4,0,1,0,11,17858
6,6,12,4711,4147,4,0,1,0,11,13753
6,6,12,4711,4147,4,0,1,0,11,13526
6,6,12,4711,4147,4,0,1,0,11,13882
6,6,12,4711,4147,4,0,1,0,11,13922
6,6,12,4711,4147,4,0,1,0,11,13700
6,6,12,4711,4147,4,0,1,0,11,13704
6,6,12,4711,4147,4,0,1,0,11,13708
6,6,12,4711,4147,4,0,1,0,11,13827
6,6,12,4711,4147,4,0,1,0,11,13743
6,6,12,4711,4147,4,0,1,0,11,13563
6,6,12,4711,4147,4,0,1,0,11,13755
6,6,12,4711,4147,4,0,1,0,11,13794
6,6,12,4711,4147,4,0,1,0,11,13978
6,6,12,4711,4147,4,0,1,0,11,13761
6,6,12,4711,4147,4,0,1,0,11,13725
6,6,12,4711,4147,4,0,1,0,11,13763
6,6,12,4711,4147,4,0,1,0,11,13880
6,6,12,4711,4147,4,0,1,0,11,13910
6,6,12,4711,4147,4,0,1,0,11,13733
6,6,12,4711,4147,4,0,1,0,11,13734
6,6,12,4711,4147,4,0,1,0,11,13827
6,6,12,4711,4147,4,0,1,0,11,13813
6,6,12,4711,4147,4,0,1,0,11,13656
6,6,12,4711,4147,4,0,1,0,11,13735
6,6,12,4711,4147,4,0,1,0,11,13660
6,6,12,4711,4147,4,0,1,0,11,13797
6,6,12,4711,4147,4,0,1,0,11,13884
6,6,12,4711,4147,4,0,1,0,11,13764
6,6,12,4711,4147,4,0,1,0,11,13642
6,6,12,4711,4147,4,0,1,0,11,13660
6,6,12,4711,4147,4,0,1,0,11,13739
9,4,12,3002,3002,0,0,0,0,11,6491
9,4,12,3002,3002,0,0,0,0,11,4384
9,4,12,3002,3002,0,0,0,0,11,3754
9,4,12,3002,3002,0,0,0,0,11,3630
9,4,12,3002,3002,0,0,0,0,11,3474
9,4,12,3002,3002,0,0,0,0,11,3423
9,4,12,3002,3002,0,0,0,0,11,3398
9,4,12,3002,3002,0,0,0,0,11,3414
9,4,12,3002,3002,0,0,0,0,11,3496
9,4,12,3002,3002,0,0,0,0,11,3425
9,4,12,3002,3002,0,0,0,0,11,3480
9,4,12,3002,3002,0,0,0,0,11,3407
9,4,12,3002,3002,0,0,0,0,11,3448
9,4,12,3002,3002,0,0,0,0,11,3406
9,4,12,3002,3002,0,0,0,0,11,3443
9,4,12,3002,3002,0,0,0,0,11,3426
9,4,12,3002,3002,0,0,0,0,11,3434
9,4,12,3002,3002,0,0,0,0,11,3533
9,4,12,3002,3002,0,0,0,0,11,3575
9,4,12,3002,3002,0,0,0,0,11,3447
9,4,12,3002,3002,0,0,0,0,11,3508
9,4,12,3002,3002,0,0,0,0,11,3453
9,4,12,3002,3002,0,0,0,0,11,3502
9,4,12,3002,3002,0,0,0,0,11,3365
9,4,12,3002,3002,0,0,0,0,11,3519
9,4,12,3002,3002,0,0,0,0,11,3566
9,4,12,3002,3002,0,0,0,0,11,3385
9,4,12,3002,3002,0,0,0,0,11,3398
9,4,12,3002,3002,0,0,0,0,11,3391
9,4,12,3002,3002,0,0,0,0,11,3419
9,4,12,3002,3002,0,0,0,0,11,3434
9,4,12,3002,3002,0,0,0,0,11,3503
9,4,12,3002,3002,0,0,0,0,11,3507
9,4,12,3002,3002,0,0,0,0,11,3389
9,4,12,3002,3002,0,0,0,0,11,3450
9,4,12,3002,3002,0,0,0,0,11,3382
9,4,12,3002,3002,0,0,0,0,11,3488
9,4,12,3002,3002,0,0,0,0,11,3496
9,4,12,3002,3002,0,0,0,0,11,3461
9,4,12,3002,3002,0,0,0,0,11,3385
9,4,12,3002,3002,0,0,0,0,11,3453
9,4,12,3002,3002,0,0,0,0,11,3378
9,4,12,3002,3002,0,0,0,0,11,3477
9,4,12,3002,3002,0,0,0,0,11,3445
9,4,12,3002,3002,0,0,0,0,11,3541
9,4,12,3002,3002,0,0,0,0,11,3496
9,4,12,3002,3002,0,0,0,0,11,3460
9,4,12,3002,3002,0,0,0,0,11,3450
9,4,12,3002,3002,0,0,0,0,11,3338
9,4,12,3002,3002,0,0,0,0,11,3414
9,4,12,3002,3002,0,0,0,0,11,3460
9,4,12,3002,3002,0,0,0,0,11,3348
9,4,12,3002,3002,0,0,0,0,11,3387
9,4,12,3002,3002,0,0,0,0,11,3374
9,4,12,3002,3002,0,0,0,0,11,3391
9,4,12,3002,3002,0,0,0,0,11,3455
9,4,12,3002,3002,0,0,0,0,11,3406
9,4,12,3002,3002,0,0,0,0,11,3468
9,4,12,3002,3002,0,0,0,0,11,3326
9,4,12,3002,3002,0,0,0,0,11,3392
9,4,12,3002,3002,0,0,0,0,11,3563
9,4,12,3002,3002,0,0,0,0,11,3401
9,4,12,3002,3002,0,0,0,0,11,3352
9,4,12,3002,3002,0,0,0,0,11,3410
9,4,12,3002,3002,0,0,0,0,11,3380
9,4,12,3002,3002,0,0,0,0,11,3423
9,4,12,3002,3002,0,0,0,0,11,3402
9,4,12,3002,3002,0,0,0,0,11,3383
9,4,12,3002,3002,0,0,0,0,11,3399
9,4,12,3002,3002,0,0,0,0,11,3444
9,4,12,3002,3002,0,0,0,0,11,3502
9,4,12,3002,3002,0,0,0,0,11,3365
9,4,12,3002,3002,0,0,0,0,11,3410
9,4,12,3002,3002,0,0,0,0,11,3371
9,4,12,3002,3002,0,0,0,0,11,3375
9,4,12,3002,3002,0,0,0,0,11,3423
9,4,12,3002,3002,0,0,0,0,11,3400
9,4,12,3002,3002,0,0,0,0,11,3433
9,4,12,3002,3002,0,0,0,0,11,3335
9,4,12,3002,3002,0,0,0,0,11,3530
9,4,12,3002,3002,0,0,0,0,11,3485
9,4,12,3002,3002,0,0,0,0,11,3369
9,4,12,3002,3002,0,0,0,0,11,3360
9,4,12,3002,3002,0,0,0,0,11,3422
9,4,12,3002,3002,0,0,0,0,11,3357
9,4,12,3002,3002,0,0,0,0,11,3384
9,4,12,3002,3002,0,0,0,0,11,3384
9,4,12,3002,3002,0,0,0,0,11,3393
9,4,12,3002,3002,0,0,0,0,11,3370
9,4,12,3002,3002,0,0,0,0,11,3487
9,4,12,3002,3002,0,0,0,0,11,3406
9,4,12,3002,3002,0,0,0,0,11,3349
9,4,12,3002,3002,0,0,0,0,11,3398
9,4,12,3002,3002,0,0,0,0,11,3344
9,4,12,3002,3002,0,0,0,0,11,3363
9,4,12,3002,3002,0,0,0,0,11,3335
9,4,12,3002,3002,0,0,0,0,11,3419
9,4,12,3002,3002,0,0,0,0,11,3488
9,4,12,3002,3002,0,0,0,0,11,3435
9,4,12,3002,3002,0,0,0,0,11,3315
10,4,12,2836,2787,0,0,1,0,13,8945
10,4,12,2836,2787,0,0,1,0,13,5844
10,4,12,2836,2787,0,0,1,0,13,5136
10,4,12,2836,2787,0,0,1,0,13,4952
10,4,12,2836,2787,0,0,1,0,13,5049
10,4,12,2836,2787,0,0,1,0,13,5038
10,4,12,2836,2787,0,0,1,0,13,4860
10,4,12,2836,2787,0,0,1,0,13,4974
10,4,12,2836,2787,0,0,1,0,13,5010
10,4,12,2836,2787,0,0,1,0,13,5029
10,4,12,2836,2787,0,0,1,0,13,5105
10,4,12,2836,2787,0,0,1,0,13,4880
10,4,12,2836,2787,0,0,1,0,13,4887
10,4,12,2836,2787,0,0,1,0,13,4942
10,4,12,2836,2787,0,0,1,0,13,4934
10,4,12,2836,2787,0,0,1,0,13,4822
10,4,12,2836,2787,0,0,1,0,13,4940
10,4,12,2836,2787,0,0,1,0,13,4883
10,4,12,2836,2787,0,0,1,0,13,4874
10,4,12,2836,2787,0,0,1,0,13,4969
10,4,12,2836,2787,0,0,1,0,13,4893
10,4,12,2836,2787,0,0,1,0,13,4826
10,4,12,2836,2787,0,0,1,0,13,4905
10,4,12,2836,2787,0,0,1,0,13,4939
10,4,12,2836,2787,0,0,1,0,13,4937
10,4,12,2836,2787,0,0,1,0,13,4941
10,4,12,2836,2787,0,0,1,0,13,4852
10,4,12,2836,2787,0,0,1,0,13,4897
10,4,12,2836,2787,0,0,1,0,13,4861
10,4,12,2836,2787,0,0,1,0,13,4888
10,4,12,2836,2787,0,0,1,0,13,4902
10,4,12,2836,2787,0,0,1,0,13,4915
10,4,12,2836,2787,0,0,1,0,13,4902
10,4,12,2836,2787,0,0,1,0,13,4855
10,4,12,2836,2787,0,0,1,0,13,4814
10,4,12,2836,2787,0,0,1,0,13,4897
10,4,12,2836,2787,0,0,1,0,13,4900
10,4,12,2836,2787,0,0,1,0,13,4970
10,4,12,2836,2787,0,0,1,0,13,4947
10,4,12,2836,2787,0,0,1,0,13,4898
10,4,12,2836,2787,0,0,1,0,13,5071
10,4,12,2836,2787,0,0,1,0,13,4867
10,4,12,2836,2787,0,0,1,0,13,4878
10,4,12,2836,2787,0,0,1,0,13,4895
10,4,12,2836,2787,0,0,1,0,13,4956
10,4,12,2836,2787,0,0,1,0,13,4836
10,4,12,2836,2787,0,0,1,0,13,4861
10,4,12,2836,2787,0,0,1,0,13,4923
10,4,12,2836,2787,0,0,1,0,13,4836
10,4,12,2836,2787,0,0,1,0,13,4837
10,4,12,2836,2787,0,0,1,0,13,4889
10,4,12,2836,2787,0,0,1,0,13,4865
10,4,12,2836,2787,0,0,1,0,13,4871
10,4,12,2836,2787,0,0,1,0,13,4896
10,4,12,2836,2787,0,0,1,0,13,4852
10,4,12,2836,2787,0,0,1,0,13,4784
10,4,12,2836,2787,0,0,1,0,13,4935
10,4,12,2836,2787,0,0,1,0,13,4823
10,4,12,2836,2787,0,0,1,0,13,4866
10,4,12,2836,2787,0,0,1,0,13,4838
10,4,12,2836,2787,0,0,1,0,13,4884
10,4,12,2836,2787,0,0,1,0,13,4934
10,4,12,2836,2787,0,0,1,0,13,4860
10,4,12,2836,2787,0,0,1,0,13,4887
10,4,12,2836,2787,0,0,1,0,13,4868
10,4,12,2836,2787,0,0,1,0,13,4827
10,4,12,2836,2787,0,0,1,0,13,4866
10,4,12,2836,2787,0,0,1,0,13,4907
10,4,12,2836,2787,0,0,1,0,13,4852
10,4,12,2836,2787,0,0,1,0,13,4844
10,4,12,2836,2787,0,0,1,0,13,4834
10,4,12,2836,2787,0,0,1,0,13,4763
10,4,12,2836,2787,0,0,1,0,13,4828
10,4,12,2836,2787,0,0,1,0,13,4833
10,4,12,2836,2787,0,0,1,0,13,4823
10,4,12,2836,2787,0,0,1,0,13,4792
10,4,12,2836,2787,0,0,1,0,13,4924
10,4,12,2836,2787,0,0,1,0,13,4932
10,4,12,2836,2787,0,0,1,0,13,4871
10,4,12,2836,2787,0,0,1,0,13,4870
10,4,12,2836,2787,0,0,1,0,13,4778
10,4,12,2836,2787,0,0,1,0,13,5008
10,4,12,2836,2787,0,0,1,0,13,4878
10,4,12,2836,2787,0,0,1,0,13,4825
10,4,12,2836,2787,0,0,1,0,13,4853
10,4,12,2836,2787,0,0,1,0,13,4821
10,4,12,2836,2787,0,0,1,0,13,4923
10,4,12,2836,2787,0,0,1,0,13,4828
10,4,12,2836,2787,0,0,1,0,13,4909
10,4,12,2836,2787,0,0,1,0,13,4805
10,4,12,2836,2787,0,0,1,0,13,4938
10,4,12,2836,2787,0,0,1,0,13,4905
10,4,12,2836,2787,0,0,1,0,13,4880
10,4,12,2836,2787,0,0,1,0,13,4839
10,4,12,2836,2787,0,0,1,0,13,4802
10,4,12,2836,2787,0,0,1,0,13,4816
10,4,12,2836,2787,0,0,1,0,13,4846
10,4,12,2836,2787,0,0,1,0,13,4854
10,4,12,2836,2787,0,0,1,0,13,4856
10,4,12,2836,2787,0,0,1,0,13,4788
10,5,12,3135,3135,0,0,0,0,12,8788
10,5,12,3135,3135,0,0,0,0,12,5742
10,5,12,3135,3135,0,0,0,0,12,5173
10,5,12,3135,3135,0,0,0,0,12,5143
10,5,12,3135,3135,0,0,0,0,12,5046
10,5,12,3135,3135,0,0,0,0,12,5115
10,5,12,3135,3135,0,0,0,0,12,5228
10,5,12,3135,3135,0,0,0,0,12,5000
10,5,12,3135,3135,0,0,0,0,12,4883
10,5,12,3135,3135,0,0,0,0,12,4942
10,5,12,3135,3135,0,0,0,0,12,4840
10,5,12,3135,3135,0,0,0,0,12,4865
10,5,12,3135,3135,0,0,0,0,12,5010
10,5,12,3135,3135,0,0,0,0,12,4916
10,5,12,3135,3135,0,0,0,0,12,4897
10,5,12,3135,3135,0,0,0,0,12,4966
10,5,12,3135,3135,0,0,0,0,12,4975
10,5,12,3135,3135,0,0,0,0,12,4950
10,5,12,3135,3135,0,0,0,0,12,5018
10,5,12,3135,3135,0,0,0,0,12,5023
10,5,12,3135,3135,0,0,0,0,12,4917
10,5,12,3135,3135,0,0,0,0,12,5193
10,5,12,3135,3135,0,0,0,0,12,4824
10,5,12,3135,3135,0,0,0,0,12,4954
10,5,12,3135,3135,0,0,0,0,12,4797
10,5,12,3135,3135,0,0,0,0,12,4918
10,5,12,3135,3135,0,0,0,0,12,4821
10,5,12,3135,3135,0,0,0,0,12,4978
10,5,12,3135,3135,0,0,0,0,12,5085
10,5,12,3135,3135,0,0,0,0,12,4947
10,5,12,3135,3135,0,0,0,0,12,5073
10,5,12,3135,3135,0,0,0,0,12,4919
10,5,12,3135,3135,0,0,0,0,12,5184
10,5,12,3135,3135,0,0,0,0,12,4827
10,5,12,3135,3135,0,0,0,0,12,4892
10,5,12,3135,3135,0,0,0,0,12,4932
10,5,12,3135,3135,0,0,0,0,12,5068
10,5,12,3135,3135,0,0,0,0,12,4899
10,5,12,3135,3135,0,0,0,0,12,4964
10,5,12,3135,3135,0,0,0,0,12,4969
10,5,12,3135,3135,0,0,0,0,12,4891
10,5,12,3135,3135,0,0,0,0,12,4904
10,5,12,3135,3135,0,0,0,0,12,4859
10,5,12,3135,3135,0,0,0,0,12,4928
10,5,12,3135,3135,0,0,0,0,12,4833
10,5,12,3135,3135,0,0,0,0,12,4854
10,5,12,3135,3135,0,0,0,0,12,4895
10,5,12,3135,3135,0,0,0,0,12,4916
10,5,12,3135,3135,0,0,0,0,12,4871
10,5,12,3135,3135,0,0,0,0,12,4910
10,5,12,3135,3135,0,0,0,0,12,4901
10,5,12,3135,3135,0,0,0,0,12,5089
10,5,12,3135,3135,0,0,0,0,12,4981
10,5,12,3135,3135,0,0,0,0,12,4841
10,5,12,3135,3135,0,0,0,0,12,4947
10,5,12,3135,3135,0,0,0,0,12,4994
10,5,12,3135,3135,0,0,0,0,12,4881
10,5,12,3135,3135,0,0,0,0,12,4913
10,5,12,3135,3135,0,0,0,0,12,4873
10,5,12,3135,3135,0,0,0,0,12,4888
10,5,12,3135,3135,0,0,0,0,12,4830
10,5,12,3135,3135,0,0,0,0,12,4976
10,5,12,3135,3135,0,0,0,0,12,4894
10,5,12,3135,3135,0,0,0,0,12,4797
10,5,12,3135,3135,0,0,0,0,12,4954
10,5,12,3135,3135,0,0,0,0,12,4855
10,5,12,3135,3135,0,0,0,0,12,4826
10,5,12,3135,3135,0,0,0,0,12,4869
10,5,12,3135,3135,0,0,0,0,12,4908
10,5,12,3135,3135,0,0,0,0,12,4885
10,5,12,3135,3135,0,0,0,0,12,4873
10,5,12,3135,3135,0,0,0,0,12,4948
10,5,12,3135,3135,0,0,0,0,12,4877
10,5,12,3135,3135,0,0,0,0,12,4912
10,5,12,3135,3135,0,0,0,0,12,4888
10,5,12,3135,3135,0,0,0,0,12,4923
10,5,12,3135,3135,0,0,0,0,12,4871
10,5,12,3135,3135,0,0,0,0,12,4905
10,5,12,3135,3135,0,0,0,0,12,4843
10,5,12,3135,3135,0,0,0,0,12,4868
10,5,12,3135,3135,0,0,0,0,12,4852
10,5,12,3135,3135,0,0,0,0,12,4829
10,5,12,3135,3135,0,0,0,0,12,5154
10,5,12,3135,3135,0,0,0,0,12,5114
10,5,12,3135,3135,0,0,0,0,12,4900
10,5,12,3135,3135,0,0,0,0,12,4875
10,5,12,3135,3135,0,0,0,0,12,4853
10,5,12,3135,3135,0,0,0,0,12,5264
10,5,12,3135,3135,0,0,0,0,12,4897
10,5,12,3135,3135,0,0,0,0,12,4903
10,5,12,3135,3135,0,0,0,0,12,4886
10,5,12,3135,3135,0,0,0,0,12,4958
10,5,12,3135,3135,0,0,0,0,12,4853
10,5,12,3135,3135,0,0,0,0,12,4854
10,5,12,3135,3135,0,0,0,0,12,4917
10,5,12,3135,3135,0,0,0,0,12,5076
10,5,12,3135,3135,0,0,0,0,12,4941
10,5,12,3135,3135,0,0,0,0,12,4855
10,5,12,3135,3135,0,0,0,0,12,4979
10,5,12,3135,3135,0,0,0,0,12,4996
6,10,12,3016,2435,0,0,4,0,11,30185
6,10,12,3016,2435,0,0,4,0,11,23058
6,10,12,3016,2435,0,0,4,0,11,22682
6,10,12,3016,2435,0,0,4,0,11,22422
6,10,12,3016,2435,0,0,4,0,11,22395
6,10,12,3016,2435,0,0,4,0,11,22391
6,10,12,3016,2435,0,0,4,0,11,22347
6,10,12,3016,2435,0,0,4,0,11,22366
6,10,12,3016,2435,0,0,4,0,11,22271
6,10,12,3016,2435,0,0,4,0,11,22662
6,10,12,3016,2435,0,0,4,0,11,22590
6,10,12,3016,2435,0,0,4,0,11,22446
6,10,12,3016,2435,0,0,4,0,11,27298
6,10,12,3016,2435,0,0,4,0,11,22042
6,10,12,3016,2435,0,0,4,0,11,21525
6,10,12,3016,2435,0,0,4,0,11,21721
6,10,12,3016,2435,0,0,4,0,11,21430
6,10,12,3016,2435,0,0,4,0,11,21553
6,10,12,3016,2435,0,0,4,0,11,21587
6,10,12,3016,2435,0,0,4,0,11,21459
6,10,12,3016,2435,0,0,4,0,11,21569
6,10,12,3016,2435,0,0,4,0,11,21619
6,10,12,3016,2435,0,0,4,0,11,21564
6,10,12,3016,2435,0,0,4,0,11,21569
6,10,12,3016,2435,0,0,4,0,11,21637
6,10,12,3016,2435,0,0,4,0,11,21604
6,10,12,3016,2435,0,0,4,0,11,21662
6,10,12,3016,2435,0,0,4,0,11,21637
6,10,12,3016,2435,0,0,4,0,11,21849
6,10,12,3016,2435,0,0,4,0,11,21686
6,10,12,3016,2435,0,0,4,0,11,21580
6,10,12,3016,2435,0,0,4,0,11,21473
6,10,12,3016,2435,0,0,4,0,11,21585
6,10,12,3016,2435,0,0,4,0,11,21603
6,10,12,3016,2435,0,0,4,0,11,21586
6,10,12,3016,2435,0,0,4,0,11,21450
6,10,12,3016,2435,0,0,4,0,11,21691
6,10,12,3016,2435,0,0,4,0,11,21577
6,10,12,3016,2435,0,0,4,0,11,21349
6,10,12,3016,2435,0,0,4,0,11,21583
6,10,12,3016,2435,0,0,4,0,11,21599
6,10,12,3016,2435,0,0,4,0,11,21548
6,10,12,3016,2435,0,0,4,0,11,21443
6,10,12,3016,2435,0,0,4,0,11,21572
6,10,12,3016,2435,0,0,4,0,11,21524
6,10,12,3016,2435,0,0,4,0,11,21405
6,10,12,3016,2435,0,0,4,0,11,21456
6,10,12,3016,2435,0,0,4,0,11,21553
6,10,12,3016,2435,0,0,4,0,11,21638
6,10,12,3016,2435,0,0,4,0,11,21755
6,10,12,3016,2435,0,0,4,0,11,22180
6,10,12,3016,2435,0,0,4,0,11,21599
6,10,12,3016,2435,0,0,4,0,11,21690
6,10,12,3016,2435,0,0,4,0,11,21502
6,10,12,3016,2435,0,0,4,0,11,21594
6,10,12,3016,2435,0,0,4,0,11,21693
6,10,12,3016,2435,0,0,4,0,11,21729
6,10,12,3016,2435,0,0,4,0,11,21611
6,10,12,3016,2435,0,0,4,0,11,21480
6,10,12,3016,2435,0,0,4,0,11,21426
6,10,12,3016,2435,0,0,4,0,11,21403
6,10,12,3016,2435,0,0,4,0,11,21439
6,10,12,3016,2435,0,0,4,0,11,21550
6,10,12,3016,2435,0,0,4,0,11,21660
6,10,12,3016,2435,0,0,4,0,11,21502
6,10,12,3016,2435,0,0,4,0,11,21570
6,10,12,3016,2435,0,0,4,0,11,21434
6,10,12,3016,2435,0,0,4,0,11,21583
6,10,12,3016,2435,0,0,4,0,11,21841
6,10,12,3016,2435,0,0,4,0,11,21559
6,10,12,3016,2435,0,0,4,0,11,21723
6,10,12,3016,2435,0,0,4,0,11,21523
6,10,12,3016,2435,0,0,4,0,11,21668
6,10,12,3016,2435,0,0,4,0,11,21571
6,10,12,3016,2435,0,0,4,0,11,21748
6,10,12,3016,2435,0,0,4,0,11,21451
6,10,12,3016,2435,0,0,4,0,11,21628
6,10,12,3016,2435,0,0,4,0,11,21590
6,10,12,3016,2435,0,0,4,0,11,21494
6,10,12,3016,2435,0,0,4,0,11,21505
6,10,12,3016,2435,0,0,4,0,11,21599
6,10,12,3016,2435,0,0,4,0,11,21506
6,10,12,3016,2435,0,0,4,0,11,21452
6,10,12,3016,2435,0,0,4,0,11,21612
6,10,12,3016,2435,0,0,4,0,11,21690
6,10,12,3016,2435,0,0,4,0,11,21559
6,10,12,3016,2435,0,0,4,0,11,21531
6,10,12,3016,2435,0,0,4,0,11,21510
6,10,12,3016,2435,0,0,4,0,11,21594
6,10,12,3016,2435,0,0,4,0,11,21475
6,10,12,3016,2435,0,0,4,0,11,21455
6,10,12,3016,2435,0,0,4,0,11,21456
6,10,12,3016,2435,0,0,4,0,11,21584
6,10,12,3016,2435,0,0,4,0,11,21512
6,10,12,3016,2435,0,0,4,0,11,21706
6,10,12,3016,2435,0,0,4,0,11,21650
6,10,12,3016,2435,0,0,4,0,11,21585
6,10,12,3016,2435,0,0,4,0,11,21589
6,10,12,3016,2435,0,0,4,0,11,21579
6,10,12,3016,2435,0,0,4,0,11,21521
1,16,12,717,611,1,0,1,0,4,46358
1,16,12,717,611,1,0,1,0,4,45445
1,16,12,717,611,1,0,1,0,4,45809
1,16,12,717,611,1,0,1,0,4,45897
1,16,12,717,611,1,0,1,0,4,45654
1,16,12,717,611,1,0,1,0,4,46019
1,16,12,717,611,1,0,1,0,4,45921
1,16,12,717,611,1,0,1,0,4,43213
1,16,12,717,611,1,0,1,0,4,40390
1,16,12,717,611,1,0,1,0,4,46150
1,16,12,717,611,1,0,1,0,4,46925
1,16,12,717,611,1,0,1,0,4,45060
1,16,12,717,611,1,0,1,0,4,47036
1,16,12,717,611,1,0,1,0,4,47394
1,16,12,717,611,1,0,1,0,4,47288
1,16,12,717,611,1,0,1,0,4,41734
1,16,12,717,611,1,0,1,0,4,40658
1,16,12,717,611,1,0,1,0,4,45631
1,16,12,717,611,1,0,1,0,4,45617
1,16,12,717,611,1,0,1,0,4,43467
1,16,12,717,611,1,0,1,0,4,44740
1,16,12,717,611,1,0,1,0,4,44807
1,16,12,717,611,1,0,1,0,4,41662
1,16,12,717,611,1,0,1,0,4,41334
1,16,12,717,611,1,0,1,0,4,42242
1,16,12,717,611,1,0,1,0,4,42761
1,16,12,717,611,1,0,1,0,4,43512
1,16,12,717,611,1,0,1,0,4,44404
1,16,12,717,611,1,0,1,0,4,44715
1,16,12,717,611,1,0,1,0,4,50879
1,16,12,717,611,1,0,1,0,4,42252
1,16,12,717,611,1,0,1,0,4,46350
1,16,12,717,611,1,0,1,0,4,31490
1,16,12,717,611,1,0,1,0,4,31381
1,16,12,717,611,1,0,1,0,4,31325
1,16,12,717,611,1,0,1,0,4,31107
1,16,12,717,611,1,0,1,0,4,31492
1,16,12,717,611,1,0,1,0,4,31233
1,16,12,717,611,1,0,1,0,4,32390
1,16,12,717,611,1,0,1,0,4,37550
1,16,12,717,611,1,0,1,0,4,31685
1,16,12,717,611,1,0,1,0,4,31775
1,16,12,717,611,1,0,1,0,4,33808
1,16,12,717,611,1,0,1,0,4,50082
1,16,12,717,611,1,0,1,0,4,44419
1,16,12,717,611,1,0,1,0,4,29695
1,16,12,717,611,1,0,1,0,4,29131
1,16,12,717,611,1,0,1,0,4,29067
1,16,12,717,611,1,0,1,0,4,29019
1,16,12,717,611,1,0,1,0,4,29027
1,16,12,717,611,1,0,1,0,4,29073
1,16,12,717,611,1,0,1,0,4,28952
1,16,12,717,611,1,0,1,0,4,28860
1,16,12,717,611,1,0,1,0,4,29092
1,16,12,717,611,1,0,1,0,4,29077
1,16,12,717,611,1,0,1,0,4,28943
1,16,12,717,611,1,0,1,0,4,28897
1,16,12,717,611,1,0,1,0,4,29024
1,16,12,717,611,1,0,1,0,4,29303
1,16,12,717,611,1,0,1,0,4,29051
1,16,12,717,611,1,0,1,0,4,29017
1,16,12,717,611,1,0,1,0,4,28957
1,16,12,717,611,1,0,1,0,4,29090
1,16,12,717,611,1,0,1,0,4,29130
1,16,12,717,611,1,0,1,0,4,29111
1,16,12,717,611,1,0,1,0,4,29336
1,16,12,717,611,1,0,1,0,4,29429
1,16,12,717,611,1,0,1,0,4,28996
1,16,12,717,611,1,0,1,0,4,29174
1,16,12,717,611,1,0,1,0,4,29195
1,16,12,717,611,1,0,1,0,4,29243
1,16,12,717,611,1,0,1,0,4,29258
1,16,12,717,611,1,0,1,0,4,29116
1,16,12,717,611,1,0,1,0,4,29509
1,16,12,717,611,1,0,1,0,4,29246
1,16,12,717,611,1,0,1,0,4,29209
1,16,12,717,611,1,0,1,0,4,29630
1,16,12,717,611,1,0,1,0,4,29013
1,16,12,717,611,1,0,1,0,4,29434
1,16,12,717,611,1,0,1,0,4,29405
1,16,12,717,611,1,0,1,0,4,29003
1,16,12,717,611,1,0,1,0,4,29091
1,16,12,717,611,1,0,1,0,4,30139
1,16,12,717,611,1,0,1,0,4,28941
1,16,12,717,611,1,0,1,0,4,28916
1,16,12,717,611,1,0,1,0,4,29008
1,16,12,717,611,1,0,1,0,4,29312
1,16,12,717,611,1,0,1,0,4,28835
1,16,12,717,611,1,0,1,0,4,29041
1,16,12,717,611,1,0,1,0,4,28983
1,16,12,717,611,1,0,1,0,4,28925
1,16,12,717,611,1,0,1,0,4,28980
1,16,12,717,611,1,0,1,0,4,28899
1,16,12,717,611,1,0,1,0,4,28861
1,16,12,717,611,1,0,1,0,4,28998
1,16,12,717,611,1,0,1,0,4,28976
1,16,12,717,611,1,0,1,0,4,28955
1,16,12,717,611,1,0,1,0,4,29072
1,16,12,717,611,1,0,1,0,4,28864
1,16,12,717,611,1,0,1,0,4,28884
10,8,12,3202,2674,1,0,3,0,14,29715
10,8,12,3202,2674,1,0,3,0,14,21228
10,8,12,3202,2674,1,0,3,0,14,20367
10,8,12,3202,2674,1,0,3,0,14,20328
10,8,12,3202,2674,1,0,3,0,14,20309
10,8,12,3202,2674,1,0,3,0,14,20435
10,8,12,3202,2674,1,0,3,0,14,20308
10,8,12,3202,2674,1,0,3,0,14,20391
10,8,12,3202,2674,1,0,3,0,14,20260
10,8,12,3202,2674,1,0,3,0,14,20395
10,8,12,3202,2674,1,0,3,0,14,20203
10,8,12,3202,2674,1,0,3,0,14,20553
10,8,12,3202,2674,1,0,3,0,14,20098
10,8,12,3202,2674,1,0,3,0,14,20086
10,8,12,3202,2674,1,0,3,0,14,20123
10,8,12,3202,2674,1,0,3,0,14,20388
10,8,12,3202,2674,1,0,3,0,14,20022
10,8,12,3202,2674,1,0,3,0,14,20173
10,8,12,3202,2674,1,0,3,0,14,20075
10,8,12,3202,2674,1,0,3,0,14,20127
10,8,12,3202,2674,1,0,3,0,14,20029
10,8,12,3202,2674,1,0,3,0,14,20073
10,8,12,3202,2674,1,0,3,0,14,20483
10,8,12,3202,2674,1,0,3,0,14,20085
10,8,12,3202,2674,1,0,3,0,14,20113
10,8,12,3202,2674,1,0,3,0,14,20024
10,8,12,3202,2674,1,0,3,0,14,20069
10,8,12,3202,2674,1,0,3,0,14,19953
10,8,12,3202,2674,1,0,3,0,14,19972
10,8,12,3202,2674,1,0,3,0,14,20337
10,8,12,3202,2674,1,0,3,0,14,20123
10,8,12,3202,2674,1,0,3,0,14,20429
10,8,12,3202,2674,1,0,3,0,14,20097
10,8,12,3202,2674,1,0,3,0,14,19937
10,8,12,3202,2674,1,0,3,0,14,20106
10,8,12,3202,2674,1,0,3,0,14,20075
10,8,12,3202,2674,1,0,3,0,14,19870
10,8,12,3202,2674,1,0,3,0,14,19955
10,8,12,3202,2674,1,0,3,0,14,19956
10,8,12,3202,2674,1,0,3,0,14,19936
10,8,12,3202,2674,1,0,3,0,14,20057
10,8,12,3202,2674,1,0,3,0,14,19935
10,8,12,3202,2674,1,0,3,0,14,19976
10,8,12,3202,2674,1,0,3,0,14,20103
10,8,12,3202,2674,1,0,3,0,14,20076
10,8,12,3202,2674,1,0,3,0,14,20066
10,8,12,3202,2674,1,0,3,0,14,20159
10,8,12,3202,2674,1,0,3,0,14,20187
10,8,12,3202,2674,1,0,3,0,14,19972
10,8,12,3202,2674,1,0,3,0,14,20027
10,8,12,3202,2674,1,0,3,0,14,20013
10,8,12,3202,2674,1,0,3,0,14,27726
10,8,12,3202,2674,1,0,3,0,14,20126
10,8,12,3202,2674,1,0,3,0,14,20147
10,8,12,3202,2674,1,0,3,0,14,19986
10,8,12,3202,2674,1,0,3,0,14,20177
10,8,12,3202,2674,1,0,3,0,14,20011
10,8,12,3202,2674,1,0,3,0,14,20198
10,8,12,3202,2674,1,0,3,0,14,20008
10,8,12,3202,2674,1,0,3,0,14,20121
10,8,12,3202,2674,1,0,3,0,14,20031
10,8,12,3202,2674,1,0,3,0,14,20310
10,8,12,3202,2674,1,0,3,0,14,19979
10,8,12,3202,2674,1,0,3,0,14,20063
10,8,12,3202,2674,1,0,3,0,14,20039
10,8,12,3202,2674,1,0,3,0,14,20050
10,8,12,3202,2674,1,0,3,0,14,20022
10,8,12,3202,2674,1,0,3,0,14,20024
10,8,12,3202,2674,1,0,3,0,14,19956
10,8,12,3202,2674,1,0,3,0,14,19921
10,8,12,3202,2674,1,0,3,0,14,19944
10,8,12,3202,2674,1,0,3,0,14,19991
10,8,12,3202,2674,1,0,3,0,14,20014
10,8,12,3202,2674,1,0,3,0,14,20271
10,8,12,3202,2674,1,0,3,0,14,19947
10,8,12,3202,2674,1,0,3,0,14,20034
10,8,12,3202,2674,1,0,3,0,14,20102
10,8,12,3202,2674,1,0,3,0,14,19986
10,8,12,3202,2674,1,0,3,0,14,20103
10,8,12,3202,2674,1,0,3,0,14,19972
10,8,12,3202,2674,1,0,3,0,14,20206
10,8,12,3202,2674,1,0,3,0,14,20092
10,8,12,3202,2674,1,0,3,0,14,19954
10,8,12,3202,2674,1,0,3,0,14,19946
10,8,12,3202,2674,1,0,3,0,14,19846
10,8,12,3202,2674,1,0,3,0,14,19891
10,8,12,3202,2674,1,0,3,0,14,20106
10,8,12,3202,2674,1,0,3,0,14,19966
10,8,12,3202,2674,1,0,3,0,14,20085
10,8,12,3202,2674,1,0,3,0,14,20087
10,8,12,3202,2674,1,0,3,0,14,20204
10,8,12,3202,2674,1,0,3,0,14,20121
10,8,12,3202,2674,1,0,3,0,14,20200
10,8,12,3202,2674,1,0,3,0,14,20102
10,8,12,3202,2674,1,0,3,0,14,19945
10,8,12,3202,2674,1,0,3,0,14,19958
10,8,12,3202,2674,1,0,3,0,14,20068
10,8,12,3202,2674,1,0,3,0,14,20049
10,8,12,3202,2674,1,0,3,0,14,19901
10,8,12,3202,2674,1,0,3,0,14,20107
