cantGimnasios,cantPokeparadas,tamMochila,distanciaOriginal,distanciaNueva,cantPermutacionesParaMejorar,cantPermutacionesParaMantener,cantReemplazosParaMejorar,cantReemplazosParaMantener,tamCamino,tiempo
1,0,0,0,0,0,0,0,0,1,1128
1,0,0,0,0,0,0,0,0,1,610
1,0,0,0,0,0,0,0,0,1,546
1,0,0,0,0,0,0,0,0,1,396
1,0,0,0,0,0,0,0,0,1,290
1,0,0,0,0,0,0,0,0,1,313
1,0,0,0,0,0,0,0,0,1,318
1,0,0,0,0,0,0,0,0,1,315
1,0,0,0,0,0,0,0,0,1,329
1,0,0,0,0,0,0,0,0,1,326
1,0,0,0,0,0,0,0,0,1,309
1,0,0,0,0,0,0,0,0,1,317
1,0,0,0,0,0,0,0,0,1,323
1,0,0,0,0,0,0,0,0,1,317
1,0,0,0,0,0,0,0,0,1,312
1,0,0,0,0,0,0,0,0,1,323
1,0,0,0,0,0,0,0,0,1,321
1,0,0,0,0,0,0,0,0,1,318
1,0,0,0,0,0,0,0,0,1,307
1,0,0,0,0,0,0,0,0,1,309
1,0,0,0,0,0,0,0,0,1,311
1,0,0,0,0,0,0,0,0,1,308
1,0,0,0,0,0,0,0,0,1,305
1,0,0,0,0,0,0,0,0,1,316
1,0,0,0,0,0,0,0,0,1,315
1,0,0,0,0,0,0,0,0,1,321
1,0,0,0,0,0,0,0,0,1,303
1,0,0,0,0,0,0,0,0,1,307
1,0,0,0,0,0,0,0,0,1,309
1,0,0,0,0,0,0,0,0,1,310
1,0,0,0,0,0,0,0,0,1,303
1,0,0,0,0,0,0,0,0,1,307
1,0,0,0,0,0,0,0,0,1,307
1,0,0,0,0,0,0,0,0,1,312
1,0,0,0,0,0,0,0,0,1,308
1,0,0,0,0,0,0,0,0,1,309
1,0,0,0,0,0,0,0,0,1,310
1,0,0,0,0,0,0,0,0,1,306
1,0,0,0,0,0,0,0,0,1,316
1,0,0,0,0,0,0,0,0,1,307
1,0,0,0,0,0,0,0,0,1,312
1,0,0,0,0,0,0,0,0,1,305
1,0,0,0,0,0,0,0,0,1,305
1,0,0,0,0,0,0,0,0,1,304
1,0,0,0,0,0,0,0,0,1,308
1,0,0,0,0,0,0,0,0,1,310
1,0,0,0,0,0,0,0,0,1,314
1,0,0,0,0,0,0,0,0,1,317
1,0,0,0,0,0,0,0,0,1,312
1,0,0,0,0,0,0,0,0,1,319
1,0,0,0,0,0,0,0,0,1,304
1,0,0,0,0,0,0,0,0,1,314
1,0,0,0,0,0,0,0,0,1,319
1,0,0,0,0,0,0,0,0,1,311
1,0,0,0,0,0,0,0,0,1,320
1,0,0,0,0,0,0,0,0,1,321
1,0,0,0,0,0,0,0,0,1,318
1,0,0,0,0,0,0,0,0,1,317
1,0,0,0,0,0,0,0,0,1,306
1,0,0,0,0,0,0,0,0,1,311
1,0,0,0,0,0,0,0,0,1,312
1,0,0,0,0,0,0,0,0,1,320
1,0,0,0,0,0,0,0,0,1,313
1,0,0,0,0,0,0,0,0,1,317
1,0,0,0,0,0,0,0,0,1,309
1,0,0,0,0,0,0,0,0,1,310
1,0,0,0,0,0,0,0,0,1,316
1,0,0,0,0,0,0,0,0,1,314
1,0,0,0,0,0,0,0,0,1,316
1,0,0,0,0,0,0,0,0,1,317
1,0,0,0,0,0,0,0,0,1,323
1,0,0,0,0,0,0,0,0,1,322
1,0,0,0,0,0,0,0,0,1,323
1,0,0,0,0,0,0,0,0,1,322
1,0,0,0,0,0,0,0,0,1,322
1,0,0,0,0,0,0,0,0,1,323
1,0,0,0,0,0,0,0,0,1,323
1,0,0,0,0,0,0,0,0,1,322
1,0,0,0,0,0,0,0,0,1,319
1,0,0,0,0,0,0,0,0,1,318
1,0,0,0,0,0,0,0,0,1,322
1,0,0,0,0,0,0,0,0,1,318
1,0,0,0,0,0,0,0,0,1,291
1,0,0,0,0,0,0,0,0,1,303
1,0,0,0,0,0,0,0,0,1,305
1,0,0,0,0,0,0,0,0,1,301
1,0,0,0,0,0,0,0,0,1,304
1,0,0,0,0,0,0,0,0,1,299
1,0,0,0,0,0,0,0,0,1,295
1,0,0,0,0,0,0,0,0,1,298
1,0,0,0,0,0,0,0,0,1,289
1,0,0,0,0,0,0,0,0,1,289
1,0,0,0,0,0,0,0,0,1,294
1,0,0,0,0,0,0,0,0,1,293
1,0,0,0,0,0,0,0,0,1,304
1,0,0,0,0,0,0,0,0,1,303
1,0,0,0,0,0,0,0,0,1,296
1,0,0,0,0,0,0,0,0,1,298
1,0,0,0,0,0,0,0,0,1,306
1,0,0,0,0,0,0,0,0,1,304
1,1,2,662,662,0,0,0,0,2,1708
1,1,2,662,662,0,0,0,0,2,1303
1,1,2,662,662,0,0,0,0,2,1223
1,1,2,662,662,0,0,0,0,2,942
1,1,2,662,662,0,0,0,0,2,755
1,1,2,662,662,0,0,0,0,2,690
1,1,2,662,662,0,0,0,0,2,669
1,1,2,662,662,0,0,0,0,2,657
1,1,2,662,662,0,0,0,0,2,661
1,1,2,662,662,0,0,0,0,2,658
1,1,2,662,662,0,0,0,0,2,661
1,1,2,662,662,0,0,0,0,2,682
1,1,2,662,662,0,0,0,0,2,663
1,1,2,662,662,0,0,0,0,2,668
1,1,2,662,662,0,0,0,0,2,667
1,1,2,662,662,0,0,0,0,2,668
1,1,2,662,662,0,0,0,0,2,671
1,1,2,662,662,0,0,0,0,2,642
1,1,2,662,662,0,0,0,0,2,656
1,1,2,662,662,0,0,0,0,2,644
1,1,2,662,662,0,0,0,0,2,650
1,1,2,662,662,0,0,0,0,2,649
1,1,2,662,662,0,0,0,0,2,646
1,1,2,662,662,0,0,0,0,2,655
1,1,2,662,662,0,0,0,0,2,654
1,1,2,662,662,0,0,0,0,2,642
1,1,2,662,662,0,0,0,0,2,648
1,1,2,662,662,0,0,0,0,2,644
1,1,2,662,662,0,0,0,0,2,656
1,1,2,662,662,0,0,0,0,2,660
1,1,2,662,662,0,0,0,0,2,651
1,1,2,662,662,0,0,0,0,2,655
1,1,2,662,662,0,0,0,0,2,663
1,1,2,662,662,0,0,0,0,2,664
1,1,2,662,662,0,0,0,0,2,668
1,1,2,662,662,0,0,0,0,2,645
1,1,2,662,662,0,0,0,0,2,645
1,1,2,662,662,0,0,0,0,2,652
1,1,2,662,662,0,0,0,0,2,676
1,1,2,662,662,0,0,0,0,2,656
1,1,2,662,662,0,0,0,0,2,675
1,1,2,662,662,0,0,0,0,2,634
1,1,2,662,662,0,0,0,0,2,674
1,1,2,662,662,0,0,0,0,2,649
1,1,2,662,662,0,0,0,0,2,676
1,1,2,662,662,0,0,0,0,2,645
1,1,2,662,662,0,0,0,0,2,646
1,1,2,662,662,0,0,0,0,2,641
1,1,2,662,662,0,0,0,0,2,642
1,1,2,662,662,0,0,0,0,2,636
1,1,2,662,662,0,0,0,0,2,640
1,1,2,662,662,0,0,0,0,2,656
1,1,2,662,662,0,0,0,0,2,636
1,1,2,662,662,0,0,0,0,2,759
1,1,2,662,662,0,0,0,0,2,665
1,1,2,662,662,0,0,0,0,2,629
1,1,2,662,662,0,0,0,0,2,644
1,1,2,662,662,0,0,0,0,2,607
1,1,2,662,662,0,0,0,0,2,628
1,1,2,662,662,0,0,0,0,2,607
1,1,2,662,662,0,0,0,0,2,630
1,1,2,662,662,0,0,0,0,2,618
1,1,2,662,662,0,0,0,0,2,603
1,1,2,662,662,0,0,0,0,2,640
1,1,2,662,662,0,0,0,0,2,573
1,1,2,662,662,0,0,0,0,2,629
1,1,2,662,662,0,0,0,0,2,609
1,1,2,662,662,0,0,0,0,2,616
1,1,2,662,662,0,0,0,0,2,617
1,1,2,662,662,0,0,0,0,2,632
1,1,2,662,662,0,0,0,0,2,635
1,1,2,662,662,0,0,0,0,2,647
1,1,2,662,662,0,0,0,0,2,620
1,1,2,662,662,0,0,0,0,2,621
1,1,2,662,662,0,0,0,0,2,645
1,1,2,662,662,0,0,0,0,2,639
1,1,2,662,662,0,0,0,0,2,635
1,1,2,662,662,0,0,0,0,2,667
1,1,2,662,662,0,0,0,0,2,647
1,1,2,662,662,0,0,0,0,2,659
1,1,2,662,662,0,0,0,0,2,649
1,1,2,662,662,0,0,0,0,2,613
1,1,2,662,662,0,0,0,0,2,611
1,1,2,662,662,0,0,0,0,2,610
1,1,2,662,662,0,0,0,0,2,638
1,1,2,662,662,0,0,0,0,2,590
1,1,2,662,662,0,0,0,0,2,595
1,1,2,662,662,0,0,0,0,2,611
1,1,2,662,662,0,0,0,0,2,627
1,1,2,662,662,0,0,0,0,2,618
1,1,2,662,662,0,0,0,0,2,637
1,1,2,662,662,0,0,0,0,2,623
1,1,2,662,662,0,0,0,0,2,620
1,1,2,662,662,0,0,0,0,2,609
1,1,2,662,662,0,0,0,0,2,627
1,1,2,662,662,0,0,0,0,2,607
1,1,2,662,662,0,0,0,0,2,607
1,1,2,662,662,0,0,0,0,2,618
1,1,2,662,662,0,0,0,0,2,624
1,1,2,662,662,0,0,0,0,2,611
3,0,0,528,528,0,0,0,0,3,797
3,0,0,528,528,0,0,0,0,3,636
3,0,0,528,528,0,0,0,0,3,578
3,0,0,528,528,0,0,0,0,3,511
3,0,0,528,528,0,0,0,0,3,383
3,0,0,528,528,0,0,0,0,3,388
3,0,0,528,528,0,0,0,0,3,388
3,0,0,528,528,0,0,0,0,3,388
3,0,0,528,528,0,0,0,0,3,383
3,0,0,528,528,0,0,0,0,3,376
3,0,0,528,528,0,0,0,0,3,366
3,0,0,528,528,0,0,0,0,3,360
3,0,0,528,528,0,0,0,0,3,360
3,0,0,528,528,0,0,0,0,3,382
3,0,0,528,528,0,0,0,0,3,365
3,0,0,528,528,0,0,0,0,3,363
3,0,0,528,528,0,0,0,0,3,364
3,0,0,528,528,0,0,0,0,3,362
3,0,0,528,528,0,0,0,0,3,368
3,0,0,528,528,0,0,0,0,3,363
3,0,0,528,528,0,0,0,0,3,361
3,0,0,528,528,0,0,0,0,3,359
3,0,0,528,528,0,0,0,0,3,360
3,0,0,528,528,0,0,0,0,3,361
3,0,0,528,528,0,0,0,0,3,361
3,0,0,528,528,0,0,0,0,3,364
3,0,0,528,528,0,0,0,0,3,362
3,0,0,528,528,0,0,0,0,3,365
3,0,0,528,528,0,0,0,0,3,367
3,0,0,528,528,0,0,0,0,3,368
3,0,0,528,528,0,0,0,0,3,367
3,0,0,528,528,0,0,0,0,3,362
3,0,0,528,528,0,0,0,0,3,363
3,0,0,528,528,0,0,0,0,3,363
3,0,0,528,528,0,0,0,0,3,363
3,0,0,528,528,0,0,0,0,3,364
3,0,0,528,528,0,0,0,0,3,359
3,0,0,528,528,0,0,0,0,3,358
3,0,0,528,528,0,0,0,0,3,358
3,0,0,528,528,0,0,0,0,3,358
3,0,0,528,528,0,0,0,0,3,358
3,0,0,528,528,0,0,0,0,3,358
3,0,0,528,528,0,0,0,0,3,359
3,0,0,528,528,0,0,0,0,3,359
3,0,0,528,528,0,0,0,0,3,376
3,0,0,528,528,0,0,0,0,3,400
3,0,0,528,528,0,0,0,0,3,366
3,0,0,528,528,0,0,0,0,3,361
3,0,0,528,528,0,0,0,0,3,370
3,0,0,528,528,0,0,0,0,3,346
3,0,0,528,528,0,0,0,0,3,351
3,0,0,528,528,0,0,0,0,3,351
3,0,0,528,528,0,0,0,0,3,352
3,0,0,528,528,0,0,0,0,3,351
3,0,0,528,528,0,0,0,0,3,352
3,0,0,528,528,0,0,0,0,3,358
3,0,0,528,528,0,0,0,0,3,355
3,0,0,528,528,0,0,0,0,3,350
3,0,0,528,528,0,0,0,0,3,345
3,0,0,528,528,0,0,0,0,3,348
3,0,0,528,528,0,0,0,0,3,349
3,0,0,528,528,0,0,0,0,3,348
3,0,0,528,528,0,0,0,0,3,344
3,0,0,528,528,0,0,0,0,3,356
3,0,0,528,528,0,0,0,0,3,363
3,0,0,528,528,0,0,0,0,3,366
3,0,0,528,528,0,0,0,0,3,366
3,0,0,528,528,0,0,0,0,3,364
3,0,0,528,528,0,0,0,0,3,368
3,0,0,528,528,0,0,0,0,3,363
3,0,0,528,528,0,0,0,0,3,364
3,0,0,528,528,0,0,0,0,3,363
3,0,0,528,528,0,0,0,0,3,362
3,0,0,528,528,0,0,0,0,3,369
3,0,0,528,528,0,0,0,0,3,366
3,0,0,528,528,0,0,0,0,3,373
3,0,0,528,528,0,0,0,0,3,366
3,0,0,528,528,0,0,0,0,3,367
3,0,0,528,528,0,0,0,0,3,364
3,0,0,528,528,0,0,0,0,3,360
3,0,0,528,528,0,0,0,0,3,362
3,0,0,528,528,0,0,0,0,3,391
3,0,0,528,528,0,0,0,0,3,331
3,0,0,528,528,0,0,0,0,3,335
3,0,0,528,528,0,0,0,0,3,332
3,0,0,528,528,0,0,0,0,3,326
3,0,0,528,528,0,0,0,0,3,334
3,0,0,528,528,0,0,0,0,3,354
3,0,0,528,528,0,0,0,0,3,398
3,0,0,528,528,0,0,0,0,3,357
3,0,0,528,528,0,0,0,0,3,377
3,0,0,528,528,0,0,0,0,3,361
3,0,0,528,528,0,0,0,0,3,364
3,0,0,528,528,0,0,0,0,3,359
3,0,0,528,528,0,0,0,0,3,359
3,0,0,528,528,0,0,0,0,3,442
3,0,0,528,528,0,0,0,0,3,485
3,0,0,528,528,0,0,0,0,3,403
3,0,0,528,528,0,0,0,0,3,377
3,0,0,528,528,0,0,0,0,3,426
3,1,3,1503,1503,0,0,0,0,4,1655
3,1,3,1503,1503,0,0,0,0,4,1448
3,1,3,1503,1503,0,0,0,0,4,896
3,1,3,1503,1503,0,0,0,0,4,687
3,1,3,1503,1503,0,0,0,0,4,689
3,1,3,1503,1503,0,0,0,0,4,706
3,1,3,1503,1503,0,0,0,0,4,706
3,1,3,1503,1503,0,0,0,0,4,729
3,1,3,1503,1503,0,0,0,0,4,645
3,1,3,1503,1503,0,0,0,0,4,700
3,1,3,1503,1503,0,0,0,0,4,665
3,1,3,1503,1503,0,0,0,0,4,650
3,1,3,1503,1503,0,0,0,0,4,649
3,1,3,1503,1503,0,0,0,0,4,677
3,1,3,1503,1503,0,0,0,0,4,658
3,1,3,1503,1503,0,0,0,0,4,667
3,1,3,1503,1503,0,0,0,0,4,668
3,1,3,1503,1503,0,0,0,0,4,667
3,1,3,1503,1503,0,0,0,0,4,651
3,1,3,1503,1503,0,0,0,0,4,662
3,1,3,1503,1503,0,0,0,0,4,671
3,1,3,1503,1503,0,0,0,0,4,653
3,1,3,1503,1503,0,0,0,0,4,684
3,1,3,1503,1503,0,0,0,0,4,661
3,1,3,1503,1503,0,0,0,0,4,675
3,1,3,1503,1503,0,0,0,0,4,675
3,1,3,1503,1503,0,0,0,0,4,631
3,1,3,1503,1503,0,0,0,0,4,665
3,1,3,1503,1503,0,0,0,0,4,627
3,1,3,1503,1503,0,0,0,0,4,640
3,1,3,1503,1503,0,0,0,0,4,601
3,1,3,1503,1503,0,0,0,0,4,646
3,1,3,1503,1503,0,0,0,0,4,629
3,1,3,1503,1503,0,0,0,0,4,644
3,1,3,1503,1503,0,0,0,0,4,698
3,1,3,1503,1503,0,0,0,0,4,679
3,1,3,1503,1503,0,0,0,0,4,631
3,1,3,1503,1503,0,0,0,0,4,652
3,1,3,1503,1503,0,0,0,0,4,684
3,1,3,1503,1503,0,0,0,0,4,627
3,1,3,1503,1503,0,0,0,0,4,617
3,1,3,1503,1503,0,0,0,0,4,631
3,1,3,1503,1503,0,0,0,0,4,620
3,1,3,1503,1503,0,0,0,0,4,618
3,1,3,1503,1503,0,0,0,0,4,620
3,1,3,1503,1503,0,0,0,0,4,720
3,1,3,1503,1503,0,0,0,0,4,681
3,1,3,1503,1503,0,0,0,0,4,647
3,1,3,1503,1503,0,0,0,0,4,663
3,1,3,1503,1503,0,0,0,0,4,642
3,1,3,1503,1503,0,0,0,0,4,646
3,1,3,1503,1503,0,0,0,0,4,631
3,1,3,1503,1503,0,0,0,0,4,633
3,1,3,1503,1503,0,0,0,0,4,703
3,1,3,1503,1503,0,0,0,0,4,669
3,1,3,1503,1503,0,0,0,0,4,649
3,1,3,1503,1503,0,0,0,0,4,642
3,1,3,1503,1503,0,0,0,0,4,656
3,1,3,1503,1503,0,0,0,0,4,632
3,1,3,1503,1503,0,0,0,0,4,660
3,1,3,1503,1503,0,0,0,0,4,629
3,1,3,1503,1503,0,0,0,0,4,661
3,1,3,1503,1503,0,0,0,0,4,639
3,1,3,1503,1503,0,0,0,0,4,664
3,1,3,1503,1503,0,0,0,0,4,643
3,1,3,1503,1503,0,0,0,0,4,670
3,1,3,1503,1503,0,0,0,0,4,659
3,1,3,1503,1503,0,0,0,0,4,668
3,1,3,1503,1503,0,0,0,0,4,638
3,1,3,1503,1503,0,0,0,0,4,654
3,1,3,1503,1503,0,0,0,0,4,674
3,1,3,1503,1503,0,0,0,0,4,650
3,1,3,1503,1503,0,0,0,0,4,675
3,1,3,1503,1503,0,0,0,0,4,654
3,1,3,1503,1503,0,0,0,0,4,677
3,1,3,1503,1503,0,0,0,0,4,652
3,1,3,1503,1503,0,0,0,0,4,660
3,1,3,1503,1503,0,0,0,0,4,643
3,1,3,1503,1503,0,0,0,0,4,650
3,1,3,1503,1503,0,0,0,0,4,635
3,1,3,1503,1503,0,0,0,0,4,668
3,1,3,1503,1503,0,0,0,0,4,626
3,1,3,1503,1503,0,0,0,0,4,647
3,1,3,1503,1503,0,0,0,0,4,627
3,1,3,1503,1503,0,0,0,0,4,645
3,1,3,1503,1503,0,0,0,0,4,654
3,1,3,1503,1503,0,0,0,0,4,644
3,1,3,1503,1503,0,0,0,0,4,641
3,1,3,1503,1503,0,0,0,0,4,672
3,1,3,1503,1503,0,0,0,0,4,671
3,1,3,1503,1503,0,0,0,0,4,644
3,1,3,1503,1503,0,0,0,0,4,653
3,1,3,1503,1503,0,0,0,0,4,691
3,1,3,1503,1503,0,0,0,0,4,629
3,1,3,1503,1503,0,0,0,0,4,634
3,1,3,1503,1503,0,0,0,0,4,641
3,1,3,1503,1503,0,0,0,0,4,633
3,1,3,1503,1503,0,0,0,0,4,638
3,1,3,1503,1503,0,0,0,0,4,646
3,1,3,1503,1503,0,0,0,0,4,633
5,0,0,701,701,0,0,0,0,5,867
5,0,0,701,701,0,0,0,0,5,702
5,0,0,701,701,0,0,0,0,5,649
5,0,0,701,701,0,0,0,0,5,483
5,0,0,701,701,0,0,0,0,5,438
5,0,0,701,701,0,0,0,0,5,430
5,0,0,701,701,0,0,0,0,5,374
5,0,0,701,701,0,0,0,0,5,406
5,0,0,701,701,0,0,0,0,5,393
5,0,0,701,701,0,0,0,0,5,457
5,0,0,701,701,0,0,0,0,5,393
5,0,0,701,701,0,0,0,0,5,400
5,0,0,701,701,0,0,0,0,5,397
5,0,0,701,701,0,0,0,0,5,397
5,0,0,701,701,0,0,0,0,5,394
5,0,0,701,701,0,0,0,0,5,391
5,0,0,701,701,0,0,0,0,5,391
5,0,0,701,701,0,0,0,0,5,388
5,0,0,701,701,0,0,0,0,5,388
5,0,0,701,701,0,0,0,0,5,401
5,0,0,701,701,0,0,0,0,5,415
5,0,0,701,701,0,0,0,0,5,411
5,0,0,701,701,0,0,0,0,5,433
5,0,0,701,701,0,0,0,0,5,461
5,0,0,701,701,0,0,0,0,5,417
5,0,0,701,701,0,0,0,0,5,377
5,0,0,701,701,0,0,0,0,5,417
5,0,0,701,701,0,0,0,0,5,380
5,0,0,701,701,0,0,0,0,5,392
5,0,0,701,701,0,0,0,0,5,380
5,0,0,701,701,0,0,0,0,5,386
5,0,0,701,701,0,0,0,0,5,431
5,0,0,701,701,0,0,0,0,5,372
5,0,0,701,701,0,0,0,0,5,377
5,0,0,701,701,0,0,0,0,5,399
5,0,0,701,701,0,0,0,0,5,401
5,0,0,701,701,0,0,0,0,5,411
5,0,0,701,701,0,0,0,0,5,397
5,0,0,701,701,0,0,0,0,5,478
5,0,0,701,701,0,0,0,0,5,396
5,0,0,701,701,0,0,0,0,5,411
5,0,0,701,701,0,0,0,0,5,409
5,0,0,701,701,0,0,0,0,5,410
5,0,0,701,701,0,0,0,0,5,392
5,0,0,701,701,0,0,0,0,5,396
5,0,0,701,701,0,0,0,0,5,393
5,0,0,701,701,0,0,0,0,5,426
5,0,0,701,701,0,0,0,0,5,393
5,0,0,701,701,0,0,0,0,5,390
5,0,0,701,701,0,0,0,0,5,401
5,0,0,701,701,0,0,0,0,5,399
5,0,0,701,701,0,0,0,0,5,384
5,0,0,701,701,0,0,0,0,5,400
5,0,0,701,701,0,0,0,0,5,395
5,0,0,701,701,0,0,0,0,5,387
5,0,0,701,701,0,0,0,0,5,416
5,0,0,701,701,0,0,0,0,5,401
5,0,0,701,701,0,0,0,0,5,421
5,0,0,701,701,0,0,0,0,5,388
5,0,0,701,701,0,0,0,0,5,390
5,0,0,701,701,0,0,0,0,5,397
5,0,0,701,701,0,0,0,0,5,401
5,0,0,701,701,0,0,0,0,5,443
5,0,0,701,701,0,0,0,0,5,387
5,0,0,701,701,0,0,0,0,5,395
5,0,0,701,701,0,0,0,0,5,391
5,0,0,701,701,0,0,0,0,5,419
5,0,0,701,701,0,0,0,0,5,395
5,0,0,701,701,0,0,0,0,5,392
5,0,0,701,701,0,0,0,0,5,393
5,0,0,701,701,0,0,0,0,5,389
5,0,0,701,701,0,0,0,0,5,388
5,0,0,701,701,0,0,0,0,5,389
5,0,0,701,701,0,0,0,0,5,393
5,0,0,701,701,0,0,0,0,5,398
5,0,0,701,701,0,0,0,0,5,400
5,0,0,701,701,0,0,0,0,5,394
5,0,0,701,701,0,0,0,0,5,398
5,0,0,701,701,0,0,0,0,5,396
5,0,0,701,701,0,0,0,0,5,382
5,0,0,701,701,0,0,0,0,5,405
5,0,0,701,701,0,0,0,0,5,429
5,0,0,701,701,0,0,0,0,5,391
5,0,0,701,701,0,0,0,0,5,402
5,0,0,701,701,0,0,0,0,5,385
5,0,0,701,701,0,0,0,0,5,383
5,0,0,701,701,0,0,0,0,5,388
5,0,0,701,701,0,0,0,0,5,394
5,0,0,701,701,0,0,0,0,5,397
5,0,0,701,701,0,0,0,0,5,418
5,0,0,701,701,0,0,0,0,5,402
5,0,0,701,701,0,0,0,0,5,420
5,0,0,701,701,0,0,0,0,5,400
5,0,0,701,701,0,0,0,0,5,394
5,0,0,701,701,0,0,0,0,5,428
5,0,0,701,701,0,0,0,0,5,374
5,0,0,701,701,0,0,0,0,5,398
5,0,0,701,701,0,0,0,0,5,393
5,0,0,701,701,0,0,0,0,5,398
5,0,0,701,701,0,0,0,0,5,401
1,5,6,685,564,1,0,0,0,3,9703
1,5,6,685,564,1,0,0,0,3,6363
1,5,6,685,564,1,0,0,0,3,4819
1,5,6,685,564,1,0,0,0,3,4526
1,5,6,685,564,1,0,0,0,3,4408
1,5,6,685,564,1,0,0,0,3,4432
1,5,6,685,564,1,0,0,0,3,4400
1,5,6,685,564,1,0,0,0,3,4415
1,5,6,685,564,1,0,0,0,3,4536
1,5,6,685,564,1,0,0,0,3,4437
1,5,6,685,564,1,0,0,0,3,4510
1,5,6,685,564,1,0,0,0,3,4351
1,5,6,685,564,1,0,0,0,3,4424
1,5,6,685,564,1,0,0,0,3,4429
1,5,6,685,564,1,0,0,0,3,4332
1,5,6,685,564,1,0,0,0,3,4458
1,5,6,685,564,1,0,0,0,3,4358
1,5,6,685,564,1,0,0,0,3,4388
1,5,6,685,564,1,0,0,0,3,4328
1,5,6,685,564,1,0,0,0,3,4385
1,5,6,685,564,1,0,0,0,3,4351
1,5,6,685,564,1,0,0,0,3,4352
1,5,6,685,564,1,0,0,0,3,7348
1,5,6,685,564,1,0,0,0,3,6813
1,5,6,685,564,1,0,0,0,3,6975
1,5,6,685,564,1,0,0,0,3,7280
1,5,6,685,564,1,0,0,0,3,5010
1,5,6,685,564,1,0,0,0,3,4719
1,5,6,685,564,1,0,0,0,3,7304
1,5,6,685,564,1,0,0,0,3,6675
1,5,6,685,564,1,0,0,0,3,6557
1,5,6,685,564,1,0,0,0,3,6149
1,5,6,685,564,1,0,0,0,3,7004
1,5,6,685,564,1,0,0,0,3,7506
1,5,6,685,564,1,0,0,0,3,4902
1,5,6,685,564,1,0,0,0,3,4720
1,5,6,685,564,1,0,0,0,3,4705
1,5,6,685,564,1,0,0,0,3,6848
1,5,6,685,564,1,0,0,0,3,7199
1,5,6,685,564,1,0,0,0,3,7182
1,5,6,685,564,1,0,0,0,3,5307
1,5,6,685,564,1,0,0,0,3,4996
1,5,6,685,564,1,0,0,0,3,4683
1,5,6,685,564,1,0,0,0,3,4633
1,5,6,685,564,1,0,0,0,3,4705
1,5,6,685,564,1,0,0,0,3,15664
1,5,6,685,564,1,0,0,0,3,4307
1,5,6,685,564,1,0,0,0,3,4430
1,5,6,685,564,1,0,0,0,3,4356
1,5,6,685,564,1,0,0,0,3,4324
1,5,6,685,564,1,0,0,0,3,4363
1,5,6,685,564,1,0,0,0,3,4384
1,5,6,685,564,1,0,0,0,3,4293
1,5,6,685,564,1,0,0,0,3,4335
1,5,6,685,564,1,0,0,0,3,4289
1,5,6,685,564,1,0,0,0,3,4312
1,5,6,685,564,1,0,0,0,3,4335
1,5,6,685,564,1,0,0,0,3,4460
1,5,6,685,564,1,0,0,0,3,4370
1,5,6,685,564,1,0,0,0,3,4404
1,5,6,685,564,1,0,0,0,3,4305
1,5,6,685,564,1,0,0,0,3,4264
1,5,6,685,564,1,0,0,0,3,4341
1,5,6,685,564,1,0,0,0,3,4361
1,5,6,685,564,1,0,0,0,3,4293
1,5,6,685,564,1,0,0,0,3,4329
1,5,6,685,564,1,0,0,0,3,4348
1,5,6,685,564,1,0,0,0,3,4266
1,5,6,685,564,1,0,0,0,3,4247
1,5,6,685,564,1,0,0,0,3,4344
1,5,6,685,564,1,0,0,0,3,4308
1,5,6,685,564,1,0,0,0,3,4283
1,5,6,685,564,1,0,0,0,3,4344
1,5,6,685,564,1,0,0,0,3,4313
1,5,6,685,564,1,0,0,0,3,4283
1,5,6,685,564,1,0,0,0,3,4376
1,5,6,685,564,1,0,0,0,3,4341
1,5,6,685,564,1,0,0,0,3,4385
1,5,6,685,564,1,0,0,0,3,4312
1,5,6,685,564,1,0,0,0,3,4301
1,5,6,685,564,1,0,0,0,3,4354
1,5,6,685,564,1,0,0,0,3,4270
1,5,6,685,564,1,0,0,0,3,4471
1,5,6,685,564,1,0,0,0,3,4327
1,5,6,685,564,1,0,0,0,3,4393
1,5,6,685,564,1,0,0,0,3,4362
1,5,6,685,564,1,0,0,0,3,4305
1,5,6,685,564,1,0,0,0,3,4298
1,5,6,685,564,1,0,0,0,3,4328
1,5,6,685,564,1,0,0,0,3,4301
1,5,6,685,564,1,0,0,0,3,4381
1,5,6,685,564,1,0,0,0,3,4351
1,5,6,685,564,1,0,0,0,3,4351
1,5,6,685,564,1,0,0,0,3,4299
1,5,6,685,564,1,0,0,0,3,4273
1,5,6,685,564,1,0,0,0,3,4279
1,5,6,685,564,1,0,0,0,3,4407
1,5,6,685,564,1,0,0,0,3,4282
1,5,6,685,564,1,0,0,0,3,4267
1,5,6,685,564,1,0,0,0,3,4328
4,3,3,1324,1324,0,0,0,0,5,4229
4,3,3,1324,1324,0,0,0,0,5,2598
4,3,3,1324,1324,0,0,0,0,5,2199
4,3,3,1324,1324,0,0,0,0,5,2161
4,3,3,1324,1324,0,0,0,0,5,2117
4,3,3,1324,1324,0,0,0,0,5,2080
4,3,3,1324,1324,0,0,0,0,5,2075
4,3,3,1324,1324,0,0,0,0,5,2268
4,3,3,1324,1324,0,0,0,0,5,2105
4,3,3,1324,1324,0,0,0,0,5,2110
4,3,3,1324,1324,0,0,0,0,5,2058
4,3,3,1324,1324,0,0,0,0,5,2090
4,3,3,1324,1324,0,0,0,0,5,2107
4,3,3,1324,1324,0,0,0,0,5,2007
4,3,3,1324,1324,0,0,0,0,5,2005
4,3,3,1324,1324,0,0,0,0,5,2030
4,3,3,1324,1324,0,0,0,0,5,2100
4,3,3,1324,1324,0,0,0,0,5,2024
4,3,3,1324,1324,0,0,0,0,5,2046
4,3,3,1324,1324,0,0,0,0,5,2039
4,3,3,1324,1324,0,0,0,0,5,2050
4,3,3,1324,1324,0,0,0,0,5,2104
4,3,3,1324,1324,0,0,0,0,5,2023
4,3,3,1324,1324,0,0,0,0,5,2030
4,3,3,1324,1324,0,0,0,0,5,2082
4,3,3,1324,1324,0,0,0,0,5,2030
4,3,3,1324,1324,0,0,0,0,5,2061
4,3,3,1324,1324,0,0,0,0,5,2029
4,3,3,1324,1324,0,0,0,0,5,2088
4,3,3,1324,1324,0,0,0,0,5,2082
4,3,3,1324,1324,0,0,0,0,5,2056
4,3,3,1324,1324,0,0,0,0,5,2112
4,3,3,1324,1324,0,0,0,0,5,2006
4,3,3,1324,1324,0,0,0,0,5,2027
4,3,3,1324,1324,0,0,0,0,5,2082
4,3,3,1324,1324,0,0,0,0,5,2091
4,3,3,1324,1324,0,0,0,0,5,2028
4,3,3,1324,1324,0,0,0,0,5,2033
4,3,3,1324,1324,0,0,0,0,5,2056
4,3,3,1324,1324,0,0,0,0,5,2047
4,3,3,1324,1324,0,0,0,0,5,2082
4,3,3,1324,1324,0,0,0,0,5,2084
4,3,3,1324,1324,0,0,0,0,5,2100
4,3,3,1324,1324,0,0,0,0,5,2032
4,3,3,1324,1324,0,0,0,0,5,2108
4,3,3,1324,1324,0,0,0,0,5,2082
4,3,3,1324,1324,0,0,0,0,5,2076
4,3,3,1324,1324,0,0,0,0,5,2029
4,3,3,1324,1324,0,0,0,0,5,2237
4,3,3,1324,1324,0,0,0,0,5,2039
4,3,3,1324,1324,0,0,0,0,5,2020
4,3,3,1324,1324,0,0,0,0,5,2081
4,3,3,1324,1324,0,0,0,0,5,2088
4,3,3,1324,1324,0,0,0,0,5,1976
4,3,3,1324,1324,0,0,0,0,5,2025
4,3,3,1324,1324,0,0,0,0,5,2113
4,3,3,1324,1324,0,0,0,0,5,2021
4,3,3,1324,1324,0,0,0,0,5,2068
4,3,3,1324,1324,0,0,0,0,5,2049
4,3,3,1324,1324,0,0,0,0,5,2077
4,3,3,1324,1324,0,0,0,0,5,2045
4,3,3,1324,1324,0,0,0,0,5,2002
4,3,3,1324,1324,0,0,0,0,5,2091
4,3,3,1324,1324,0,0,0,0,5,1986
4,3,3,1324,1324,0,0,0,0,5,2045
4,3,3,1324,1324,0,0,0,0,5,2039
4,3,3,1324,1324,0,0,0,0,5,2092
4,3,3,1324,1324,0,0,0,0,5,2026
4,3,3,1324,1324,0,0,0,0,5,2048
4,3,3,1324,1324,0,0,0,0,5,2016
4,3,3,1324,1324,0,0,0,0,5,2050
4,3,3,1324,1324,0,0,0,0,5,2145
4,3,3,1324,1324,0,0,0,0,5,2143
4,3,3,1324,1324,0,0,0,0,5,2144
4,3,3,1324,1324,0,0,0,0,5,2040
4,3,3,1324,1324,0,0,0,0,5,2169
4,3,3,1324,1324,0,0,0,0,5,2061
4,3,3,1324,1324,0,0,0,0,5,2142
4,3,3,1324,1324,0,0,0,0,5,2128
4,3,3,1324,1324,0,0,0,0,5,2052
4,3,3,1324,1324,0,0,0,0,5,2112
4,3,3,1324,1324,0,0,0,0,5,2049
4,3,3,1324,1324,0,0,0,0,5,2086
4,3,3,1324,1324,0,0,0,0,5,2020
4,3,3,1324,1324,0,0,0,0,5,2136
4,3,3,1324,1324,0,0,0,0,5,2025
4,3,3,1324,1324,0,0,0,0,5,2106
4,3,3,1324,1324,0,0,0,0,5,2070
4,3,3,1324,1324,0,0,0,0,5,2018
4,3,3,1324,1324,0,0,0,0,5,2044
4,3,3,1324,1324,0,0,0,0,5,2034
4,3,3,1324,1324,0,0,0,0,5,2059
4,3,3,1324,1324,0,0,0,0,5,2045
4,3,3,1324,1324,0,0,0,0,5,2006
4,3,3,1324,1324,0,0,0,0,5,1973
4,3,3,1324,1324,0,0,0,0,5,2142
4,3,3,1324,1324,0,0,0,0,5,2028
4,3,3,1324,1324,0,0,0,0,5,2054
4,3,3,1324,1324,0,0,0,0,5,2021
4,3,3,1324,1324,0,0,0,0,5,2073
6,2,2,1323,1323,0,0,0,0,7,2844
6,2,2,1323,1323,0,0,0,0,7,2592
6,2,2,1323,1323,0,0,0,0,7,1760
6,2,2,1323,1323,0,0,0,0,7,1391
6,2,2,1323,1323,0,0,0,0,7,1416
6,2,2,1323,1323,0,0,0,0,7,1408
6,2,2,1323,1323,0,0,0,0,7,1387
6,2,2,1323,1323,0,0,0,0,7,1347
6,2,2,1323,1323,0,0,0,0,7,1332
6,2,2,1323,1323,0,0,0,0,7,1294
6,2,2,1323,1323,0,0,0,0,7,1333
6,2,2,1323,1323,0,0,0,0,7,1319
6,2,2,1323,1323,0,0,0,0,7,1328
6,2,2,1323,1323,0,0,0,0,7,1304
6,2,2,1323,1323,0,0,0,0,7,1400
6,2,2,1323,1323,0,0,0,0,7,1432
6,2,2,1323,1323,0,0,0,0,7,1452
6,2,2,1323,1323,0,0,0,0,7,1347
6,2,2,1323,1323,0,0,0,0,7,1365
6,2,2,1323,1323,0,0,0,0,7,1293
6,2,2,1323,1323,0,0,0,0,7,1348
6,2,2,1323,1323,0,0,0,0,7,1318
6,2,2,1323,1323,0,0,0,0,7,1305
6,2,2,1323,1323,0,0,0,0,7,1297
6,2,2,1323,1323,0,0,0,0,7,1378
6,2,2,1323,1323,0,0,0,0,7,1290
6,2,2,1323,1323,0,0,0,0,7,1304
6,2,2,1323,1323,0,0,0,0,7,1288
6,2,2,1323,1323,0,0,0,0,7,1304
6,2,2,1323,1323,0,0,0,0,7,1294
6,2,2,1323,1323,0,0,0,0,7,1302
6,2,2,1323,1323,0,0,0,0,7,1302
6,2,2,1323,1323,0,0,0,0,7,1298
6,2,2,1323,1323,0,0,0,0,7,1361
6,2,2,1323,1323,0,0,0,0,7,1292
6,2,2,1323,1323,0,0,0,0,7,1300
6,2,2,1323,1323,0,0,0,0,7,1467
6,2,2,1323,1323,0,0,0,0,7,1355
6,2,2,1323,1323,0,0,0,0,7,1336
6,2,2,1323,1323,0,0,0,0,7,1365
6,2,2,1323,1323,0,0,0,0,7,1354
6,2,2,1323,1323,0,0,0,0,7,1364
6,2,2,1323,1323,0,0,0,0,7,1352
6,2,2,1323,1323,0,0,0,0,7,1329
6,2,2,1323,1323,0,0,0,0,7,1314
6,2,2,1323,1323,0,0,0,0,7,1316
6,2,2,1323,1323,0,0,0,0,7,1379
6,2,2,1323,1323,0,0,0,0,7,1322
6,2,2,1323,1323,0,0,0,0,7,1393
6,2,2,1323,1323,0,0,0,0,7,1293
6,2,2,1323,1323,0,0,0,0,7,1306
6,2,2,1323,1323,0,0,0,0,7,1280
6,2,2,1323,1323,0,0,0,0,7,1307
6,2,2,1323,1323,0,0,0,0,7,1276
6,2,2,1323,1323,0,0,0,0,7,1305
6,2,2,1323,1323,0,0,0,0,7,1345
6,2,2,1323,1323,0,0,0,0,7,1340
6,2,2,1323,1323,0,0,0,0,7,1329
6,2,2,1323,1323,0,0,0,0,7,1402
6,2,2,1323,1323,0,0,0,0,7,1295
6,2,2,1323,1323,0,0,0,0,7,1294
6,2,2,1323,1323,0,0,0,0,7,1305
6,2,2,1323,1323,0,0,0,0,7,1420
6,2,2,1323,1323,0,0,0,0,7,1339
6,2,2,1323,1323,0,0,0,0,7,1368
6,2,2,1323,1323,0,0,0,0,7,1369
6,2,2,1323,1323,0,0,0,0,7,1324
6,2,2,1323,1323,0,0,0,0,7,1343
6,2,2,1323,1323,0,0,0,0,7,1303
6,2,2,1323,1323,0,0,0,0,7,1319
6,2,2,1323,1323,0,0,0,0,7,1342
6,2,2,1323,1323,0,0,0,0,7,1329
6,2,2,1323,1323,0,0,0,0,7,1305
6,2,2,1323,1323,0,0,0,0,7,1283
6,2,2,1323,1323,0,0,0,0,7,1344
6,2,2,1323,1323,0,0,0,0,7,1358
6,2,2,1323,1323,0,0,0,0,7,1291
6,2,2,1323,1323,0,0,0,0,7,1299
6,2,2,1323,1323,0,0,0,0,7,1328
6,2,2,1323,1323,0,0,0,0,7,1424
6,2,2,1323,1323,0,0,0,0,7,1300
6,2,2,1323,1323,0,0,0,0,7,1346
6,2,2,1323,1323,0,0,0,0,7,1392
6,2,2,1323,1323,0,0,0,0,7,1302
6,2,2,1323,1323,0,0,0,0,7,1310
6,2,2,1323,1323,0,0,0,0,7,1309
6,2,2,1323,1323,0,0,0,0,7,1298
6,2,2,1323,1323,0,0,0,0,7,1279
6,2,2,1323,1323,0,0,0,0,7,1285
6,2,2,1323,1323,0,0,0,0,7,1353
6,2,2,1323,1323,0,0,0,0,7,1275
6,2,2,1323,1323,0,0,0,0,7,1287
6,2,2,1323,1323,0,0,0,0,7,1303
6,2,2,1323,1323,0,0,0,0,7,1285
6,2,2,1323,1323,0,0,0,0,7,1313
6,2,2,1323,1323,0,0,0,0,7,1294
6,2,2,1323,1323,0,0,0,0,7,1303
6,2,2,1323,1323,0,0,0,0,7,1303
6,2,2,1323,1323,0,0,0,0,7,1289
6,2,2,1323,1323,0,0,0,0,7,1360
5,4,2,2028,2028,0,0,0,0,6,5222
5,4,2,2028,2028,0,0,0,0,6,4783
5,4,2,2028,2028,0,0,0,0,6,2887
5,4,2,2028,2028,0,0,0,0,6,2764
5,4,2,2028,2028,0,0,0,0,6,2684
5,4,2,2028,2028,0,0,0,0,6,2679
5,4,2,2028,2028,0,0,0,0,6,2654
5,4,2,2028,2028,0,0,0,0,6,2695
5,4,2,2028,2028,0,0,0,0,6,2624
5,4,2,2028,2028,0,0,0,0,6,2619
5,4,2,2028,2028,0,0,0,0,6,2598
5,4,2,2028,2028,0,0,0,0,6,2582
5,4,2,2028,2028,0,0,0,0,6,2552
5,4,2,2028,2028,0,0,0,0,6,2771
5,4,2,2028,2028,0,0,0,0,6,2609
5,4,2,2028,2028,0,0,0,0,6,2647
5,4,2,2028,2028,0,0,0,0,6,2597
5,4,2,2028,2028,0,0,0,0,6,2657
5,4,2,2028,2028,0,0,0,0,6,2568
5,4,2,2028,2028,0,0,0,0,6,2570
5,4,2,2028,2028,0,0,0,0,6,2537
5,4,2,2028,2028,0,0,0,0,6,2640
5,4,2,2028,2028,0,0,0,0,6,2568
5,4,2,2028,2028,0,0,0,0,6,2547
5,4,2,2028,2028,0,0,0,0,6,2682
5,4,2,2028,2028,0,0,0,0,6,2549
5,4,2,2028,2028,0,0,0,0,6,2556
5,4,2,2028,2028,0,0,0,0,6,2617
5,4,2,2028,2028,0,0,0,0,6,2546
5,4,2,2028,2028,0,0,0,0,6,2594
5,4,2,2028,2028,0,0,0,0,6,2574
5,4,2,2028,2028,0,0,0,0,6,2551
5,4,2,2028,2028,0,0,0,0,6,2592
5,4,2,2028,2028,0,0,0,0,6,2629
5,4,2,2028,2028,0,0,0,0,6,2615
5,4,2,2028,2028,0,0,0,0,6,2550
5,4,2,2028,2028,0,0,0,0,6,2611
5,4,2,2028,2028,0,0,0,0,6,2574
5,4,2,2028,2028,0,0,0,0,6,2567
5,4,2,2028,2028,0,0,0,0,6,2708
5,4,2,2028,2028,0,0,0,0,6,2696
5,4,2,2028,2028,0,0,0,0,6,2571
5,4,2,2028,2028,0,0,0,0,6,2550
5,4,2,2028,2028,0,0,0,0,6,2593
5,4,2,2028,2028,0,0,0,0,6,2602
5,4,2,2028,2028,0,0,0,0,6,2583
5,4,2,2028,2028,0,0,0,0,6,2571
5,4,2,2028,2028,0,0,0,0,6,2737
5,4,2,2028,2028,0,0,0,0,6,2640
5,4,2,2028,2028,0,0,0,0,6,2548
5,4,2,2028,2028,0,0,0,0,6,2532
5,4,2,2028,2028,0,0,0,0,6,2601
5,4,2,2028,2028,0,0,0,0,6,2601
5,4,2,2028,2028,0,0,0,0,6,2579
5,4,2,2028,2028,0,0,0,0,6,2571
5,4,2,2028,2028,0,0,0,0,6,2639
5,4,2,2028,2028,0,0,0,0,6,2658
5,4,2,2028,2028,0,0,0,0,6,2617
5,4,2,2028,2028,0,0,0,0,6,2577
5,4,2,2028,2028,0,0,0,0,6,2542
5,4,2,2028,2028,0,0,0,0,6,2626
5,4,2,2028,2028,0,0,0,0,6,2575
5,4,2,2028,2028,0,0,0,0,6,2631
5,4,2,2028,2028,0,0,0,0,6,2549
5,4,2,2028,2028,0,0,0,0,6,2579
5,4,2,2028,2028,0,0,0,0,6,2556
5,4,2,2028,2028,0,0,0,0,6,2708
5,4,2,2028,2028,0,0,0,0,6,2606
5,4,2,2028,2028,0,0,0,0,6,2586
5,4,2,2028,2028,0,0,0,0,6,2572
5,4,2,2028,2028,0,0,0,0,6,2532
5,4,2,2028,2028,0,0,0,0,6,2558
5,4,2,2028,2028,0,0,0,0,6,2589
5,4,2,2028,2028,0,0,0,0,6,2561
5,4,2,2028,2028,0,0,0,0,6,2591
5,4,2,2028,2028,0,0,0,0,6,2607
5,4,2,2028,2028,0,0,0,0,6,2903
5,4,2,2028,2028,0,0,0,0,6,2882
5,4,2,2028,2028,0,0,0,0,6,2826
5,4,2,2028,2028,0,0,0,0,6,2765
5,4,2,2028,2028,0,0,0,0,6,2771
5,4,2,2028,2028,0,0,0,0,6,13516
5,4,2,2028,2028,0,0,0,0,6,2659
5,4,2,2028,2028,0,0,0,0,6,2570
5,4,2,2028,2028,0,0,0,0,6,2606
5,4,2,2028,2028,0,0,0,0,6,2556
5,4,2,2028,2028,0,0,0,0,6,2629
5,4,2,2028,2028,0,0,0,0,6,2629
5,4,2,2028,2028,0,0,0,0,6,2558
5,4,2,2028,2028,0,0,0,0,6,2593
5,4,2,2028,2028,0,0,0,0,6,2539
5,4,2,2028,2028,0,0,0,0,6,2557
5,4,2,2028,2028,0,0,0,0,6,2565
5,4,2,2028,2028,0,0,0,0,6,2596
5,4,2,2028,2028,0,0,0,0,6,2603
5,4,2,2028,2028,0,0,0,0,6,2577
5,4,2,2028,2028,0,0,0,0,6,2607
5,4,2,2028,2028,0,0,0,0,6,2548
5,4,2,2028,2028,0,0,0,0,6,2598
5,4,2,2028,2028,0,0,0,0,6,2574
10,0,0,1307,1307,0,0,0,0,10,1201
10,0,0,1307,1307,0,0,0,0,10,1001
10,0,0,1307,1307,0,0,0,0,10,816
10,0,0,1307,1307,0,0,0,0,10,618
10,0,0,1307,1307,0,0,0,0,10,636
10,0,0,1307,1307,0,0,0,0,10,630
10,0,0,1307,1307,0,0,0,0,10,629
10,0,0,1307,1307,0,0,0,0,10,598
10,0,0,1307,1307,0,0,0,0,10,598
10,0,0,1307,1307,0,0,0,0,10,573
10,0,0,1307,1307,0,0,0,0,10,599
10,0,0,1307,1307,0,0,0,0,10,606
10,0,0,1307,1307,0,0,0,0,10,571
10,0,0,1307,1307,0,0,0,0,10,566
10,0,0,1307,1307,0,0,0,0,10,571
10,0,0,1307,1307,0,0,0,0,10,590
10,0,0,1307,1307,0,0,0,0,10,571
10,0,0,1307,1307,0,0,0,0,10,578
10,0,0,1307,1307,0,0,0,0,10,581
10,0,0,1307,1307,0,0,0,0,10,568
10,0,0,1307,1307,0,0,0,0,10,566
10,0,0,1307,1307,0,0,0,0,10,562
10,0,0,1307,1307,0,0,0,0,10,563
10,0,0,1307,1307,0,0,0,0,10,566
10,0,0,1307,1307,0,0,0,0,10,563
10,0,0,1307,1307,0,0,0,0,10,560
10,0,0,1307,1307,0,0,0,0,10,563
10,0,0,1307,1307,0,0,0,0,10,562
10,0,0,1307,1307,0,0,0,0,10,567
10,0,0,1307,1307,0,0,0,0,10,564
10,0,0,1307,1307,0,0,0,0,10,563
10,0,0,1307,1307,0,0,0,0,10,563
10,0,0,1307,1307,0,0,0,0,10,594
10,0,0,1307,1307,0,0,0,0,10,577
10,0,0,1307,1307,0,0,0,0,10,567
10,0,0,1307,1307,0,0,0,0,10,563
10,0,0,1307,1307,0,0,0,0,10,556
10,0,0,1307,1307,0,0,0,0,10,554
10,0,0,1307,1307,0,0,0,0,10,608
10,0,0,1307,1307,0,0,0,0,10,568
10,0,0,1307,1307,0,0,0,0,10,568
10,0,0,1307,1307,0,0,0,0,10,578
10,0,0,1307,1307,0,0,0,0,10,594
10,0,0,1307,1307,0,0,0,0,10,578
10,0,0,1307,1307,0,0,0,0,10,578
10,0,0,1307,1307,0,0,0,0,10,573
10,0,0,1307,1307,0,0,0,0,10,572
10,0,0,1307,1307,0,0,0,0,10,578
10,0,0,1307,1307,0,0,0,0,10,574
10,0,0,1307,1307,0,0,0,0,10,575
10,0,0,1307,1307,0,0,0,0,10,571
10,0,0,1307,1307,0,0,0,0,10,559
10,0,0,1307,1307,0,0,0,0,10,559
10,0,0,1307,1307,0,0,0,0,10,564
10,0,0,1307,1307,0,0,0,0,10,566
10,0,0,1307,1307,0,0,0,0,10,570
10,0,0,1307,1307,0,0,0,0,10,565
10,0,0,1307,1307,0,0,0,0,10,568
10,0,0,1307,1307,0,0,0,0,10,566
10,0,0,1307,1307,0,0,0,0,10,613
10,0,0,1307,1307,0,0,0,0,10,573
10,0,0,1307,1307,0,0,0,0,10,560
10,0,0,1307,1307,0,0,0,0,10,548
10,0,0,1307,1307,0,0,0,0,10,557
10,0,0,1307,1307,0,0,0,0,10,552
10,0,0,1307,1307,0,0,0,0,10,554
10,0,0,1307,1307,0,0,0,0,10,543
10,0,0,1307,1307,0,0,0,0,10,547
10,0,0,1307,1307,0,0,0,0,10,550
10,0,0,1307,1307,0,0,0,0,10,556
10,0,0,1307,1307,0,0,0,0,10,548
10,0,0,1307,1307,0,0,0,0,10,545
10,0,0,1307,1307,0,0,0,0,10,546
10,0,0,1307,1307,0,0,0,0,10,547
10,0,0,1307,1307,0,0,0,0,10,566
10,0,0,1307,1307,0,0,0,0,10,553
10,0,0,1307,1307,0,0,0,0,10,551
10,0,0,1307,1307,0,0,0,0,10,601
10,0,0,1307,1307,0,0,0,0,10,606
10,0,0,1307,1307,0,0,0,0,10,588
10,0,0,1307,1307,0,0,0,0,10,567
10,0,0,1307,1307,0,0,0,0,10,564
10,0,0,1307,1307,0,0,0,0,10,554
10,0,0,1307,1307,0,0,0,0,10,548
10,0,0,1307,1307,0,0,0,0,10,545
10,0,0,1307,1307,0,0,0,0,10,545
10,0,0,1307,1307,0,0,0,0,10,576
10,0,0,1307,1307,0,0,0,0,10,569
10,0,0,1307,1307,0,0,0,0,10,548
10,0,0,1307,1307,0,0,0,0,10,601
10,0,0,1307,1307,0,0,0,0,10,543
10,0,0,1307,1307,0,0,0,0,10,559
10,0,0,1307,1307,0,0,0,0,10,541
10,0,0,1307,1307,0,0,0,0,10,527
10,0,0,1307,1307,0,0,0,0,10,529
10,0,0,1307,1307,0,0,0,0,10,541
10,0,0,1307,1307,0,0,0,0,10,563
10,0,0,1307,1307,0,0,0,0,10,567
10,0,0,1307,1307,0,0,0,0,10,615
10,0,0,1307,1307,0,0,0,0,10,550
2,9,13,2775,2303,7,0,1,0,7,33311
2,9,13,2775,2303,7,0,1,0,7,24859
2,9,13,2775,2303,7,0,1,0,7,24346
2,9,13,2775,2303,7,0,1,0,7,24222
2,9,13,2775,2303,7,0,1,0,7,23987
2,9,13,2775,2303,7,0,1,0,7,23949
2,9,13,2775,2303,7,0,1,0,7,24307
2,9,13,2775,2303,7,0,1,0,7,23874
2,9,13,2775,2303,7,0,1,0,7,25702
2,9,13,2775,2303,7,0,1,0,7,25353
2,9,13,2775,2303,7,0,1,0,7,23875
2,9,13,2775,2303,7,0,1,0,7,23763
2,9,13,2775,2303,7,0,1,0,7,23877
2,9,13,2775,2303,7,0,1,0,7,23551
2,9,13,2775,2303,7,0,1,0,7,23692
2,9,13,2775,2303,7,0,1,0,7,23738
2,9,13,2775,2303,7,0,1,0,7,23948
2,9,13,2775,2303,7,0,1,0,7,23685
2,9,13,2775,2303,7,0,1,0,7,23671
2,9,13,2775,2303,7,0,1,0,7,23822
2,9,13,2775,2303,7,0,1,0,7,23642
2,9,13,2775,2303,7,0,1,0,7,23934
2,9,13,2775,2303,7,0,1,0,7,23638
2,9,13,2775,2303,7,0,1,0,7,23511
2,9,13,2775,2303,7,0,1,0,7,24233
2,9,13,2775,2303,7,0,1,0,7,23692
2,9,13,2775,2303,7,0,1,0,7,23850
2,9,13,2775,2303,7,0,1,0,7,23785
2,9,13,2775,2303,7,0,1,0,7,23705
2,9,13,2775,2303,7,0,1,0,7,23941
2,9,13,2775,2303,7,0,1,0,7,24441
2,9,13,2775,2303,7,0,1,0,7,23819
2,9,13,2775,2303,7,0,1,0,7,23998
2,9,13,2775,2303,7,0,1,0,7,23841
2,9,13,2775,2303,7,0,1,0,7,24003
2,9,13,2775,2303,7,0,1,0,7,23841
2,9,13,2775,2303,7,0,1,0,7,23757
2,9,13,2775,2303,7,0,1,0,7,23618
2,9,13,2775,2303,7,0,1,0,7,23560
2,9,13,2775,2303,7,0,1,0,7,23758
2,9,13,2775,2303,7,0,1,0,7,23853
2,9,13,2775,2303,7,0,1,0,7,23734
2,9,13,2775,2303,7,0,1,0,7,23781
2,9,13,2775,2303,7,0,1,0,7,23671
2,9,13,2775,2303,7,0,1,0,7,23751
2,9,13,2775,2303,7,0,1,0,7,23515
2,9,13,2775,2303,7,0,1,0,7,23621
2,9,13,2775,2303,7,0,1,0,7,23550
2,9,13,2775,2303,7,0,1,0,7,23617
2,9,13,2775,2303,7,0,1,0,7,23760
2,9,13,2775,2303,7,0,1,0,7,23748
2,9,13,2775,2303,7,0,1,0,7,23598
2,9,13,2775,2303,7,0,1,0,7,23678
2,9,13,2775,2303,7,0,1,0,7,23564
2,9,13,2775,2303,7,0,1,0,7,23687
2,9,13,2775,2303,7,0,1,0,7,23861
2,9,13,2775,2303,7,0,1,0,7,23666
2,9,13,2775,2303,7,0,1,0,7,23517
2,9,13,2775,2303,7,0,1,0,7,23768
2,9,13,2775,2303,7,0,1,0,7,24190
2,9,13,2775,2303,7,0,1,0,7,23943
2,9,13,2775,2303,7,0,1,0,7,23584
2,9,13,2775,2303,7,0,1,0,7,23762
2,9,13,2775,2303,7,0,1,0,7,23719
2,9,13,2775,2303,7,0,1,0,7,23682
2,9,13,2775,2303,7,0,1,0,7,23750
2,9,13,2775,2303,7,0,1,0,7,23827
2,9,13,2775,2303,7,0,1,0,7,23734
2,9,13,2775,2303,7,0,1,0,7,23668
2,9,13,2775,2303,7,0,1,0,7,23518
2,9,13,2775,2303,7,0,1,0,7,23592
2,9,13,2775,2303,7,0,1,0,7,23550
2,9,13,2775,2303,7,0,1,0,7,23742
2,9,13,2775,2303,7,0,1,0,7,23904
2,9,13,2775,2303,7,0,1,0,7,23747
2,9,13,2775,2303,7,0,1,0,7,23960
2,9,13,2775,2303,7,0,1,0,7,23947
2,9,13,2775,2303,7,0,1,0,7,23965
2,9,13,2775,2303,7,0,1,0,7,23785
2,9,13,2775,2303,7,0,1,0,7,23896
2,9,13,2775,2303,7,0,1,0,7,23779
2,9,13,2775,2303,7,0,1,0,7,23822
2,9,13,2775,2303,7,0,1,0,7,23672
2,9,13,2775,2303,7,0,1,0,7,23699
2,9,13,2775,2303,7,0,1,0,7,23658
2,9,13,2775,2303,7,0,1,0,7,23845
2,9,13,2775,2303,7,0,1,0,7,23769
2,9,13,2775,2303,7,0,1,0,7,23648
2,9,13,2775,2303,7,0,1,0,7,23853
2,9,13,2775,2303,7,0,1,0,7,23907
2,9,13,2775,2303,7,0,1,0,7,23782
2,9,13,2775,2303,7,0,1,0,7,23914
2,9,13,2775,2303,7,0,1,0,7,23771
2,9,13,2775,2303,7,0,1,0,7,23817
2,9,13,2775,2303,7,0,1,0,7,23837
2,9,13,2775,2303,7,0,1,0,7,23633
2,9,13,2775,2303,7,0,1,0,7,23653
2,9,13,2775,2303,7,0,1,0,7,23746
2,9,13,2775,2303,7,0,1,0,7,23654
2,9,13,2775,2303,7,0,1,0,7,23662
6,6,14,5542,5194,10,0,0,0,11,23264
6,6,14,5542,5194,10,0,0,0,11,16338
6,6,14,5542,5194,10,0,0,0,11,15872
6,6,14,5542,5194,10,0,0,0,11,15756
6,6,14,5542,5194,10,0,0,0,11,15604
6,6,14,5542,5194,10,0,0,0,11,15547
6,6,14,5542,5194,10,0,0,0,11,15719
6,6,14,5542,5194,10,0,0,0,11,15606
6,6,14,5542,5194,10,0,0,0,11,15691
6,6,14,5542,5194,10,0,0,0,11,15541
6,6,14,5542,5194,10,0,0,0,11,15354
6,6,14,5542,5194,10,0,0,0,11,19107
6,6,14,5542,5194,10,0,0,0,11,15487
6,6,14,5542,5194,10,0,0,0,11,15478
6,6,14,5542,5194,10,0,0,0,11,15640
6,6,14,5542,5194,10,0,0,0,11,15634
6,6,14,5542,5194,10,0,0,0,11,15533
6,6,14,5542,5194,10,0,0,0,11,15469
6,6,14,5542,5194,10,0,0,0,11,15407
6,6,14,5542,5194,10,0,0,0,11,15590
6,6,14,5542,5194,10,0,0,0,11,15503
6,6,14,5542,5194,10,0,0,0,11,15724
6,6,14,5542,5194,10,0,0,0,11,15373
6,6,14,5542,5194,10,0,0,0,11,15409
6,6,14,5542,5194,10,0,0,0,11,15645
6,6,14,5542,5194,10,0,0,0,11,15546
6,6,14,5542,5194,10,0,0,0,11,15470
6,6,14,5542,5194,10,0,0,0,11,15763
6,6,14,5542,5194,10,0,0,0,11,15618
6,6,14,5542,5194,10,0,0,0,11,15564
6,6,14,5542,5194,10,0,0,0,11,15554
6,6,14,5542,5194,10,0,0,0,11,15482
6,6,14,5542,5194,10,0,0,0,11,15696
6,6,14,5542,5194,10,0,0,0,11,15504
6,6,14,5542,5194,10,0,0,0,11,15510
6,6,14,5542,5194,10,0,0,0,11,15420
6,6,14,5542,5194,10,0,0,0,11,15342
6,6,14,5542,5194,10,0,0,0,11,15469
6,6,14,5542,5194,10,0,0,0,11,15523
6,6,14,5542,5194,10,0,0,0,11,15603
6,6,14,5542,5194,10,0,0,0,11,15551
6,6,14,5542,5194,10,0,0,0,11,15757
6,6,14,5542,5194,10,0,0,0,11,15640
6,6,14,5542,5194,10,0,0,0,11,15568
6,6,14,5542,5194,10,0,0,0,11,15590
6,6,14,5542,5194,10,0,0,0,11,15495
6,6,14,5542,5194,10,0,0,0,11,15534
6,6,14,5542,5194,10,0,0,0,11,15783
6,6,14,5542,5194,10,0,0,0,11,15433
6,6,14,5542,5194,10,0,0,0,11,15711
6,6,14,5542,5194,10,0,0,0,11,15432
6,6,14,5542,5194,10,0,0,0,11,15681
6,6,14,5542,5194,10,0,0,0,11,15568
6,6,14,5542,5194,10,0,0,0,11,15512
6,6,14,5542,5194,10,0,0,0,11,15564
6,6,14,5542,5194,10,0,0,0,11,15287
6,6,14,5542,5194,10,0,0,0,11,15616
6,6,14,5542,5194,10,0,0,0,11,15647
6,6,14,5542,5194,10,0,0,0,11,15611
6,6,14,5542,5194,10,0,0,0,11,15575
6,6,14,5542,5194,10,0,0,0,11,15450
6,6,14,5542,5194,10,0,0,0,11,15299
6,6,14,5542,5194,10,0,0,0,11,15365
6,6,14,5542,5194,10,0,0,0,11,15363
6,6,14,5542,5194,10,0,0,0,11,15701
6,6,14,5542,5194,10,0,0,0,11,15404
6,6,14,5542,5194,10,0,0,0,11,15356
6,6,14,5542,5194,10,0,0,0,11,15616
6,6,14,5542,5194,10,0,0,0,11,15328
6,6,14,5542,5194,10,0,0,0,11,15435
6,6,14,5542,5194,10,0,0,0,11,15310
6,6,14,5542,5194,10,0,0,0,11,15260
6,6,14,5542,5194,10,0,0,0,11,15299
6,6,14,5542,5194,10,0,0,0,11,15249
6,6,14,5542,5194,10,0,0,0,11,15386
6,6,14,5542,5194,10,0,0,0,11,15453
6,6,14,5542,5194,10,0,0,0,11,15288
6,6,14,5542,5194,10,0,0,0,11,15705
6,6,14,5542,5194,10,0,0,0,11,15356
6,6,14,5542,5194,10,0,0,0,11,15616
6,6,14,5542,5194,10,0,0,0,11,15574
6,6,14,5542,5194,10,0,0,0,11,15540
6,6,14,5542,5194,10,0,0,0,11,15679
6,6,14,5542,5194,10,0,0,0,11,15422
6,6,14,5542,5194,10,0,0,0,11,15642
6,6,14,5542,5194,10,0,0,0,11,15405
6,6,14,5542,5194,10,0,0,0,11,15451
6,6,14,5542,5194,10,0,0,0,11,15691
6,6,14,5542,5194,10,0,0,0,11,15530
6,6,14,5542,5194,10,0,0,0,11,15420
6,6,14,5542,5194,10,0,0,0,11,15795
6,6,14,5542,5194,10,0,0,0,11,15383
6,6,14,5542,5194,10,0,0,0,11,15534
6,6,14,5542,5194,10,0,0,0,11,15524
6,6,14,5542,5194,10,0,0,0,11,15469
6,6,14,5542,5194,10,0,0,0,11,15585
6,6,14,5542,5194,10,0,0,0,11,15366
6,6,14,5542,5194,10,0,0,0,11,15294
6,6,14,5542,5194,10,0,0,0,11,15308
6,6,14,5542,5194,10,0,0,0,11,15400
9,4,5,3132,3055,1,0,0,0,11,7881
9,4,5,3132,3055,1,0,0,0,11,5333
9,4,5,3132,3055,1,0,0,0,11,4608
9,4,5,3132,3055,1,0,0,0,11,4621
9,4,5,3132,3055,1,0,0,0,11,4409
9,4,5,3132,3055,1,0,0,0,11,4391
9,4,5,3132,3055,1,0,0,0,11,4408
9,4,5,3132,3055,1,0,0,0,11,4328
9,4,5,3132,3055,1,0,0,0,11,4362
9,4,5,3132,3055,1,0,0,0,11,4309
9,4,5,3132,3055,1,0,0,0,11,6098
9,4,5,3132,3055,1,0,0,0,11,7168
9,4,5,3132,3055,1,0,0,0,11,4767
9,4,5,3132,3055,1,0,0,0,11,4534
9,4,5,3132,3055,1,0,0,0,11,4330
9,4,5,3132,3055,1,0,0,0,11,4380
9,4,5,3132,3055,1,0,0,0,11,4377
9,4,5,3132,3055,1,0,0,0,11,4312
9,4,5,3132,3055,1,0,0,0,11,4379
9,4,5,3132,3055,1,0,0,0,11,4318
9,4,5,3132,3055,1,0,0,0,11,4600
9,4,5,3132,3055,1,0,0,0,11,4331
9,4,5,3132,3055,1,0,0,0,11,4396
9,4,5,3132,3055,1,0,0,0,11,4407
9,4,5,3132,3055,1,0,0,0,11,4441
9,4,5,3132,3055,1,0,0,0,11,4408
9,4,5,3132,3055,1,0,0,0,11,4354
9,4,5,3132,3055,1,0,0,0,11,4422
9,4,5,3132,3055,1,0,0,0,11,4289
9,4,5,3132,3055,1,0,0,0,11,4331
9,4,5,3132,3055,1,0,0,0,11,4367
9,4,5,3132,3055,1,0,0,0,11,4314
9,4,5,3132,3055,1,0,0,0,11,4417
9,4,5,3132,3055,1,0,0,0,11,4325
9,4,5,3132,3055,1,0,0,0,11,4304
9,4,5,3132,3055,1,0,0,0,11,4340
9,4,5,3132,3055,1,0,0,0,11,4341
9,4,5,3132,3055,1,0,0,0,11,4339
9,4,5,3132,3055,1,0,0,0,11,4345
9,4,5,3132,3055,1,0,0,0,11,4359
9,4,5,3132,3055,1,0,0,0,11,4323
9,4,5,3132,3055,1,0,0,0,11,4363
9,4,5,3132,3055,1,0,0,0,11,4314
9,4,5,3132,3055,1,0,0,0,11,4364
9,4,5,3132,3055,1,0,0,0,11,4390
9,4,5,3132,3055,1,0,0,0,11,4301
9,4,5,3132,3055,1,0,0,0,11,4311
9,4,5,3132,3055,1,0,0,0,11,4341
9,4,5,3132,3055,1,0,0,0,11,4364
9,4,5,3132,3055,1,0,0,0,11,4420
9,4,5,3132,3055,1,0,0,0,11,4329
9,4,5,3132,3055,1,0,0,0,11,4358
9,4,5,3132,3055,1,0,0,0,11,4398
9,4,5,3132,3055,1,0,0,0,11,4350
9,4,5,3132,3055,1,0,0,0,11,4322
9,4,5,3132,3055,1,0,0,0,11,4377
9,4,5,3132,3055,1,0,0,0,11,4307
9,4,5,3132,3055,1,0,0,0,11,4406
9,4,5,3132,3055,1,0,0,0,11,4438
9,4,5,3132,3055,1,0,0,0,11,4383
9,4,5,3132,3055,1,0,0,0,11,4339
9,4,5,3132,3055,1,0,0,0,11,5873
9,4,5,3132,3055,1,0,0,0,11,6602
9,4,5,3132,3055,1,0,0,0,11,7770
9,4,5,3132,3055,1,0,0,0,11,7076
9,4,5,3132,3055,1,0,0,0,11,6823
9,4,5,3132,3055,1,0,0,0,11,6722
9,4,5,3132,3055,1,0,0,0,11,6134
9,4,5,3132,3055,1,0,0,0,11,5931
9,4,5,3132,3055,1,0,0,0,11,5960
9,4,5,3132,3055,1,0,0,0,11,6420
9,4,5,3132,3055,1,0,0,0,11,7059
9,4,5,3132,3055,1,0,0,0,11,6728
9,4,5,3132,3055,1,0,0,0,11,6742
9,4,5,3132,3055,1,0,0,0,11,17633
9,4,5,3132,3055,1,0,0,0,11,5371
9,4,5,3132,3055,1,0,0,0,11,4834
9,4,5,3132,3055,1,0,0,0,11,4817
9,4,5,3132,3055,1,0,0,0,11,4775
9,4,5,3132,3055,1,0,0,0,11,4792
9,4,5,3132,3055,1,0,0,0,11,5145
9,4,5,3132,3055,1,0,0,0,11,5174
9,4,5,3132,3055,1,0,0,0,11,4791
9,4,5,3132,3055,1,0,0,0,11,4775
9,4,5,3132,3055,1,0,0,0,11,4643
9,4,5,3132,3055,1,0,0,0,11,4709
9,4,5,3132,3055,1,0,0,0,11,5579
9,4,5,3132,3055,1,0,0,0,11,7335
9,4,5,3132,3055,1,0,0,0,11,7427
9,4,5,3132,3055,1,0,0,0,11,7687
9,4,5,3132,3055,1,0,0,0,11,6804
9,4,5,3132,3055,1,0,0,0,11,6742
9,4,5,3132,3055,1,0,0,0,11,7255
9,4,5,3132,3055,1,0,0,0,11,5261
9,4,5,3132,3055,1,0,0,0,11,4786
9,4,5,3132,3055,1,0,0,0,11,4651
9,4,5,3132,3055,1,0,0,0,11,4624
9,4,5,3132,3055,1,0,0,0,11,4593
9,4,5,3132,3055,1,0,0,0,11,4607
9,4,5,3132,3055,1,0,0,0,11,4688
10,4,7,5373,4947,2,0,0,0,13,10021
10,4,7,5373,4947,2,0,0,0,13,6279
10,4,7,5373,4947,2,0,0,0,13,5730
10,4,7,5373,4947,2,0,0,0,13,5630
10,4,7,5373,4947,2,0,0,0,13,5500
10,4,7,5373,4947,2,0,0,0,13,5719
10,4,7,5373,4947,2,0,0,0,13,5480
10,4,7,5373,4947,2,0,0,0,13,5399
10,4,7,5373,4947,2,0,0,0,13,5415
10,4,7,5373,4947,2,0,0,0,13,5387
10,4,7,5373,4947,2,0,0,0,13,5308
10,4,7,5373,4947,2,0,0,0,13,5383
10,4,7,5373,4947,2,0,0,0,13,5416
10,4,7,5373,4947,2,0,0,0,13,5421
10,4,7,5373,4947,2,0,0,0,13,5387
10,4,7,5373,4947,2,0,0,0,13,5442
10,4,7,5373,4947,2,0,0,0,13,5421
10,4,7,5373,4947,2,0,0,0,13,5506
10,4,7,5373,4947,2,0,0,0,13,5350
10,4,7,5373,4947,2,0,0,0,13,5527
10,4,7,5373,4947,2,0,0,0,13,5484
10,4,7,5373,4947,2,0,0,0,13,5332
10,4,7,5373,4947,2,0,0,0,13,5459
10,4,7,5373,4947,2,0,0,0,13,5369
10,4,7,5373,4947,2,0,0,0,13,5691
10,4,7,5373,4947,2,0,0,0,13,5473
10,4,7,5373,4947,2,0,0,0,13,5429
10,4,7,5373,4947,2,0,0,0,13,5465
10,4,7,5373,4947,2,0,0,0,13,5573
10,4,7,5373,4947,2,0,0,0,13,5465
10,4,7,5373,4947,2,0,0,0,13,5319
10,4,7,5373,4947,2,0,0,0,13,5495
10,4,7,5373,4947,2,0,0,0,13,5369
10,4,7,5373,4947,2,0,0,0,13,5381
10,4,7,5373,4947,2,0,0,0,13,5353
10,4,7,5373,4947,2,0,0,0,13,5453
10,4,7,5373,4947,2,0,0,0,13,5457
10,4,7,5373,4947,2,0,0,0,13,5309
10,4,7,5373,4947,2,0,0,0,13,5351
10,4,7,5373,4947,2,0,0,0,13,5390
10,4,7,5373,4947,2,0,0,0,13,5418
10,4,7,5373,4947,2,0,0,0,13,5384
10,4,7,5373,4947,2,0,0,0,13,5546
10,4,7,5373,4947,2,0,0,0,13,5429
10,4,7,5373,4947,2,0,0,0,13,5308
10,4,7,5373,4947,2,0,0,0,13,5316
10,4,7,5373,4947,2,0,0,0,13,5321
10,4,7,5373,4947,2,0,0,0,13,5640
10,4,7,5373,4947,2,0,0,0,13,5420
10,4,7,5373,4947,2,0,0,0,13,5391
10,4,7,5373,4947,2,0,0,0,13,5441
10,4,7,5373,4947,2,0,0,0,13,5484
10,4,7,5373,4947,2,0,0,0,13,5430
10,4,7,5373,4947,2,0,0,0,13,5394
10,4,7,5373,4947,2,0,0,0,13,5291
10,4,7,5373,4947,2,0,0,0,13,5553
10,4,7,5373,4947,2,0,0,0,13,5371
10,4,7,5373,4947,2,0,0,0,13,5439
10,4,7,5373,4947,2,0,0,0,13,5301
10,4,7,5373,4947,2,0,0,0,13,5500
10,4,7,5373,4947,2,0,0,0,13,5333
10,4,7,5373,4947,2,0,0,0,13,5432
10,4,7,5373,4947,2,0,0,0,13,5361
10,4,7,5373,4947,2,0,0,0,13,5367
10,4,7,5373,4947,2,0,0,0,13,5418
10,4,7,5373,4947,2,0,0,0,13,5272
10,4,7,5373,4947,2,0,0,0,13,5469
10,4,7,5373,4947,2,0,0,0,13,5445
10,4,7,5373,4947,2,0,0,0,13,5342
10,4,7,5373,4947,2,0,0,0,13,5477
10,4,7,5373,4947,2,0,0,0,13,5512
10,4,7,5373,4947,2,0,0,0,13,5484
10,4,7,5373,4947,2,0,0,0,13,5452
10,4,7,5373,4947,2,0,0,0,13,5444
10,4,7,5373,4947,2,0,0,0,13,5433
10,4,7,5373,4947,2,0,0,0,13,5385
10,4,7,5373,4947,2,0,0,0,13,5338
10,4,7,5373,4947,2,0,0,0,13,5357
10,4,7,5373,4947,2,0,0,0,13,5422
10,4,7,5373,4947,2,0,0,0,13,5443
10,4,7,5373,4947,2,0,0,0,13,13588
10,4,7,5373,4947,2,0,0,0,13,5570
10,4,7,5373,4947,2,0,0,0,13,5385
10,4,7,5373,4947,2,0,0,0,13,5352
10,4,7,5373,4947,2,0,0,0,13,5465
10,4,7,5373,4947,2,0,0,0,13,5390
10,4,7,5373,4947,2,0,0,0,13,5345
10,4,7,5373,4947,2,0,0,0,13,5525
10,4,7,5373,4947,2,0,0,0,13,5380
10,4,7,5373,4947,2,0,0,0,13,5331
10,4,7,5373,4947,2,0,0,0,13,5252
10,4,7,5373,4947,2,0,0,0,13,5511
10,4,7,5373,4947,2,0,0,0,13,5378
10,4,7,5373,4947,2,0,0,0,13,5510
10,4,7,5373,4947,2,0,0,0,13,5256
10,4,7,5373,4947,2,0,0,0,13,5335
10,4,7,5373,4947,2,0,0,0,13,5358
10,4,7,5373,4947,2,0,0,0,13,5330
10,4,7,5373,4947,2,0,0,0,13,5382
10,4,7,5373,4947,2,0,0,0,13,5525
10,5,5,3397,3397,0,0,0,0,12,9010
10,5,5,3397,3397,0,0,0,0,12,6216
10,5,5,3397,3397,0,0,0,0,12,5512
10,5,5,3397,3397,0,0,0,0,12,5413
10,5,5,3397,3397,0,0,0,0,12,5120
10,5,5,3397,3397,0,0,0,0,12,5213
10,5,5,3397,3397,0,0,0,0,12,5245
10,5,5,3397,3397,0,0,0,0,12,5109
10,5,5,3397,3397,0,0,0,0,12,5120
10,5,5,3397,3397,0,0,0,0,12,5259
10,5,5,3397,3397,0,0,0,0,12,5080
10,5,5,3397,3397,0,0,0,0,12,5077
10,5,5,3397,3397,0,0,0,0,12,5116
10,5,5,3397,3397,0,0,0,0,12,5083
10,5,5,3397,3397,0,0,0,0,12,5332
10,5,5,3397,3397,0,0,0,0,12,5126
10,5,5,3397,3397,0,0,0,0,12,5214
10,5,5,3397,3397,0,0,0,0,12,5202
10,5,5,3397,3397,0,0,0,0,12,5173
10,5,5,3397,3397,0,0,0,0,12,5209
10,5,5,3397,3397,0,0,0,0,12,5140
10,5,5,3397,3397,0,0,0,0,12,5285
10,5,5,3397,3397,0,0,0,0,12,5128
10,5,5,3397,3397,0,0,0,0,12,5120
10,5,5,3397,3397,0,0,0,0,12,5296
10,5,5,3397,3397,0,0,0,0,12,5332
10,5,5,3397,3397,0,0,0,0,12,5106
10,5,5,3397,3397,0,0,0,0,12,5077
10,5,5,3397,3397,0,0,0,0,12,5193
10,5,5,3397,3397,0,0,0,0,12,5094
10,5,5,3397,3397,0,0,0,0,12,5092
10,5,5,3397,3397,0,0,0,0,12,5053
10,5,5,3397,3397,0,0,0,0,12,5099
10,5,5,3397,3397,0,0,0,0,12,5110
10,5,5,3397,3397,0,0,0,0,12,5094
10,5,5,3397,3397,0,0,0,0,12,5064
10,5,5,3397,3397,0,0,0,0,12,5080
10,5,5,3397,3397,0,0,0,0,12,5163
10,5,5,3397,3397,0,0,0,0,12,5043
10,5,5,3397,3397,0,0,0,0,12,5077
10,5,5,3397,3397,0,0,0,0,12,5193
10,5,5,3397,3397,0,0,0,0,12,5179
10,5,5,3397,3397,0,0,0,0,12,5022
10,5,5,3397,3397,0,0,0,0,12,5187
10,5,5,3397,3397,0,0,0,0,12,5066
10,5,5,3397,3397,0,0,0,0,12,5025
10,5,5,3397,3397,0,0,0,0,12,5218
10,5,5,3397,3397,0,0,0,0,12,5180
10,5,5,3397,3397,0,0,0,0,12,5080
10,5,5,3397,3397,0,0,0,0,12,5085
10,5,5,3397,3397,0,0,0,0,12,5161
10,5,5,3397,3397,0,0,0,0,12,5134
10,5,5,3397,3397,0,0,0,0,12,5183
10,5,5,3397,3397,0,0,0,0,12,5112
10,5,5,3397,3397,0,0,0,0,12,5095
10,5,5,3397,3397,0,0,0,0,12,5078
10,5,5,3397,3397,0,0,0,0,12,5119
10,5,5,3397,3397,0,0,0,0,12,5039
10,5,5,3397,3397,0,0,0,0,12,5146
10,5,5,3397,3397,0,0,0,0,12,5079
10,5,5,3397,3397,0,0,0,0,12,5158
10,5,5,3397,3397,0,0,0,0,12,5154
10,5,5,3397,3397,0,0,0,0,12,5500
10,5,5,3397,3397,0,0,0,0,12,5295
10,5,5,3397,3397,0,0,0,0,12,5135
10,5,5,3397,3397,0,0,0,0,12,5181
10,5,5,3397,3397,0,0,0,0,12,5062
10,5,5,3397,3397,0,0,0,0,12,5106
10,5,5,3397,3397,0,0,0,0,12,5048
10,5,5,3397,3397,0,0,0,0,12,5097
10,5,5,3397,3397,0,0,0,0,12,5142
10,5,5,3397,3397,0,0,0,0,12,5254
10,5,5,3397,3397,0,0,0,0,12,5169
10,5,5,3397,3397,0,0,0,0,12,5084
10,5,5,3397,3397,0,0,0,0,12,5170
10,5,5,3397,3397,0,0,0,0,12,5113
10,5,5,3397,3397,0,0,0,0,12,5296
10,5,5,3397,3397,0,0,0,0,12,5075
10,5,5,3397,3397,0,0,0,0,12,5031
10,5,5,3397,3397,0,0,0,0,12,5101
10,5,5,3397,3397,0,0,0,0,12,5196
10,5,5,3397,3397,0,0,0,0,12,5098
10,5,5,3397,3397,0,0,0,0,12,5134
10,5,5,3397,3397,0,0,0,0,12,5147
10,5,5,3397,3397,0,0,0,0,12,5189
10,5,5,3397,3397,0,0,0,0,12,5050
10,5,5,3397,3397,0,0,0,0,12,5186
10,5,5,3397,3397,0,0,0,0,12,5092
10,5,5,3397,3397,0,0,0,0,12,5181
10,5,5,3397,3397,0,0,0,0,12,5090
10,5,5,3397,3397,0,0,0,0,12,5202
10,5,5,3397,3397,0,0,0,0,12,5081
10,5,5,3397,3397,0,0,0,0,12,5139
10,5,5,3397,3397,0,0,0,0,12,5107
10,5,5,3397,3397,0,0,0,0,12,5060
10,5,5,3397,3397,0,0,0,0,12,5053
10,5,5,3397,3397,0,0,0,0,12,5197
10,5,5,3397,3397,0,0,0,0,12,5143
10,5,5,3397,3397,0,0,0,0,12,5155
10,5,5,3397,3397,0,0,0,0,12,5182
6,10,13,6664,6443,4,0,0,0,11,34986
6,10,13,6664,6443,4,0,0,0,11,26052
6,10,13,6664,6443,4,0,0,0,11,25818
6,10,13,6664,6443,4,0,0,0,11,25684
6,10,13,6664,6443,4,0,0,0,11,25689
6,10,13,6664,6443,4,0,0,0,11,25518
6,10,13,6664,6443,4,0,0,0,11,25534
6,10,13,6664,6443,4,0,0,0,11,25674
6,10,13,6664,6443,4,0,0,0,11,25512
6,10,13,6664,6443,4,0,0,0,11,25631
6,10,13,6664,6443,4,0,0,0,11,25430
6,10,13,6664,6443,4,0,0,0,11,25641
6,10,13,6664,6443,4,0,0,0,11,25569
6,10,13,6664,6443,4,0,0,0,11,25372
6,10,13,6664,6443,4,0,0,0,11,25368
6,10,13,6664,6443,4,0,0,0,11,25305
6,10,13,6664,6443,4,0,0,0,11,25367
6,10,13,6664,6443,4,0,0,0,11,25299
6,10,13,6664,6443,4,0,0,0,11,25365
6,10,13,6664,6443,4,0,0,0,11,25543
6,10,13,6664,6443,4,0,0,0,11,25638
6,10,13,6664,6443,4,0,0,0,11,25180
6,10,13,6664,6443,4,0,0,0,11,25327
6,10,13,6664,6443,4,0,0,0,11,25514
6,10,13,6664,6443,4,0,0,0,11,25452
6,10,13,6664,6443,4,0,0,0,11,25414
6,10,13,6664,6443,4,0,0,0,11,25639
6,10,13,6664,6443,4,0,0,0,11,25409
6,10,13,6664,6443,4,0,0,0,11,25586
6,10,13,6664,6443,4,0,0,0,11,25300
6,10,13,6664,6443,4,0,0,0,11,25432
6,10,13,6664,6443,4,0,0,0,11,25848
6,10,13,6664,6443,4,0,0,0,11,25420
6,10,13,6664,6443,4,0,0,0,11,37242
6,10,13,6664,6443,4,0,0,0,11,40086
6,10,13,6664,6443,4,0,0,0,11,39982
6,10,13,6664,6443,4,0,0,0,11,40469
6,10,13,6664,6443,4,0,0,0,11,40224
6,10,13,6664,6443,4,0,0,0,11,40488
6,10,13,6664,6443,4,0,0,0,11,40205
6,10,13,6664,6443,4,0,0,0,11,40384
6,10,13,6664,6443,4,0,0,0,11,38952
6,10,13,6664,6443,4,0,0,0,11,35700
6,10,13,6664,6443,4,0,0,0,11,38336
6,10,13,6664,6443,4,0,0,0,11,41537
6,10,13,6664,6443,4,0,0,0,11,41457
6,10,13,6664,6443,4,0,0,0,11,39036
6,10,13,6664,6443,4,0,0,0,11,42021
6,10,13,6664,6443,4,0,0,0,11,41213
6,10,13,6664,6443,4,0,0,0,11,35734
6,10,13,6664,6443,4,0,0,0,11,35727
6,10,13,6664,6443,4,0,0,0,11,40405
6,10,13,6664,6443,4,0,0,0,11,40152
6,10,13,6664,6443,4,0,0,0,11,38398
6,10,13,6664,6443,4,0,0,0,11,39418
6,10,13,6664,6443,4,0,0,0,11,39485
6,10,13,6664,6443,4,0,0,0,11,39399
6,10,13,6664,6443,4,0,0,0,11,36527
6,10,13,6664,6443,4,0,0,0,11,36004
6,10,13,6664,6443,4,0,0,0,11,36738
6,10,13,6664,6443,4,0,0,0,11,36571
6,10,13,6664,6443,4,0,0,0,11,37271
6,10,13,6664,6443,4,0,0,0,11,38579
6,10,13,6664,6443,4,0,0,0,11,49158
6,10,13,6664,6443,4,0,0,0,11,38492
6,10,13,6664,6443,4,0,0,0,11,38752
6,10,13,6664,6443,4,0,0,0,11,40485
6,10,13,6664,6443,4,0,0,0,11,36754
6,10,13,6664,6443,4,0,0,0,11,38162
6,10,13,6664,6443,4,0,0,0,11,35190
6,10,13,6664,6443,4,0,0,0,11,37257
6,10,13,6664,6443,4,0,0,0,11,38983
6,10,13,6664,6443,4,0,0,0,11,43272
6,10,13,6664,6443,4,0,0,0,11,42551
6,10,13,6664,6443,4,0,0,0,11,38792
6,10,13,6664,6443,4,0,0,0,11,36976
6,10,13,6664,6443,4,0,0,0,11,39255
6,10,13,6664,6443,4,0,0,0,11,38511
6,10,13,6664,6443,4,0,0,0,11,38436
6,10,13,6664,6443,4,0,0,0,11,37473
6,10,13,6664,6443,4,0,0,0,11,37590
6,10,13,6664,6443,4,0,0,0,11,36018
6,10,13,6664,6443,4,0,0,0,11,37779
6,10,13,6664,6443,4,0,0,0,11,35831
6,10,13,6664,6443,4,0,0,0,11,37698
6,10,13,6664,6443,4,0,0,0,11,35626
6,10,13,6664,6443,4,0,0,0,11,38774
6,10,13,6664,6443,4,0,0,0,11,35880
6,10,13,6664,6443,4,0,0,0,11,37709
6,10,13,6664,6443,4,0,0,0,11,26091
6,10,13,6664,6443,4,0,0,0,11,25567
6,10,13,6664,6443,4,0,0,0,11,25582
6,10,13,6664,6443,4,0,0,0,11,25488
6,10,13,6664,6443,4,0,0,0,11,25589
6,10,13,6664,6443,4,0,0,0,11,25439
6,10,13,6664,6443,4,0,0,0,11,25501
6,10,13,6664,6443,4,0,0,0,11,25926
6,10,13,6664,6443,4,0,0,0,11,25673
6,10,13,6664,6443,4,0,0,0,11,25796
6,10,13,6664,6443,4,0,0,0,11,25827
1,16,7,918,708,0,0,4,0,4,50154
1,16,7,918,708,0,0,4,0,4,32826
1,16,7,918,708,0,0,4,0,4,27797
1,16,7,918,708,0,0,4,0,4,28345
1,16,7,918,708,0,0,4,0,4,28004
1,16,7,918,708,0,0,4,0,4,28575
1,16,7,918,708,0,0,4,0,4,29347
1,16,7,918,708,0,0,4,0,4,28929
1,16,7,918,708,0,0,4,0,4,30244
1,16,7,918,708,0,0,4,0,4,29634
1,16,7,918,708,0,0,4,0,4,27469
1,16,7,918,708,0,0,4,0,4,26932
1,16,7,918,708,0,0,4,0,4,26844
1,16,7,918,708,0,0,4,0,4,26737
1,16,7,918,708,0,0,4,0,4,27145
1,16,7,918,708,0,0,4,0,4,27134
1,16,7,918,708,0,0,4,0,4,27159
1,16,7,918,708,0,0,4,0,4,26759
1,16,7,918,708,0,0,4,0,4,27132
1,16,7,918,708,0,0,4,0,4,26717
1,16,7,918,708,0,0,4,0,4,26869
1,16,7,918,708,0,0,4,0,4,26706
1,16,7,918,708,0,0,4,0,4,26728
1,16,7,918,708,0,0,4,0,4,26851
1,16,7,918,708,0,0,4,0,4,26580
1,16,7,918,708,0,0,4,0,4,27106
1,16,7,918,708,0,0,4,0,4,26617
1,16,7,918,708,0,0,4,0,4,26829
1,16,7,918,708,0,0,4,0,4,26978
1,16,7,918,708,0,0,4,0,4,26974
1,16,7,918,708,0,0,4,0,4,26928
1,16,7,918,708,0,0,4,0,4,27099
1,16,7,918,708,0,0,4,0,4,26748
1,16,7,918,708,0,0,4,0,4,26868
1,16,7,918,708,0,0,4,0,4,26986
1,16,7,918,708,0,0,4,0,4,27350
1,16,7,918,708,0,0,4,0,4,26829
1,16,7,918,708,0,0,4,0,4,26718
1,16,7,918,708,0,0,4,0,4,26921
1,16,7,918,708,0,0,4,0,4,27035
1,16,7,918,708,0,0,4,0,4,26893
1,16,7,918,708,0,0,4,0,4,26885
1,16,7,918,708,0,0,4,0,4,27410
1,16,7,918,708,0,0,4,0,4,26919
1,16,7,918,708,0,0,4,0,4,27132
1,16,7,918,708,0,0,4,0,4,27065
1,16,7,918,708,0,0,4,0,4,27227
1,16,7,918,708,0,0,4,0,4,27009
1,16,7,918,708,0,0,4,0,4,27152
1,16,7,918,708,0,0,4,0,4,27439
1,16,7,918,708,0,0,4,0,4,26909
1,16,7,918,708,0,0,4,0,4,27724
1,16,7,918,708,0,0,4,0,4,28864
1,16,7,918,708,0,0,4,0,4,27685
1,16,7,918,708,0,0,4,0,4,27133
1,16,7,918,708,0,0,4,0,4,27749
1,16,7,918,708,0,0,4,0,4,27603
1,16,7,918,708,0,0,4,0,4,27977
1,16,7,918,708,0,0,4,0,4,27538
1,16,7,918,708,0,0,4,0,4,26803
1,16,7,918,708,0,0,4,0,4,26822
1,16,7,918,708,0,0,4,0,4,28215
1,16,7,918,708,0,0,4,0,4,29461
1,16,7,918,708,0,0,4,0,4,32034
1,16,7,918,708,0,0,4,0,4,27448
1,16,7,918,708,0,0,4,0,4,26761
1,16,7,918,708,0,0,4,0,4,27170
1,16,7,918,708,0,0,4,0,4,26651
1,16,7,918,708,0,0,4,0,4,27605
1,16,7,918,708,0,0,4,0,4,28162
1,16,7,918,708,0,0,4,0,4,27194
1,16,7,918,708,0,0,4,0,4,27673
1,16,7,918,708,0,0,4,0,4,27637
1,16,7,918,708,0,0,4,0,4,28247
1,16,7,918,708,0,0,4,0,4,26838
1,16,7,918,708,0,0,4,0,4,26716
1,16,7,918,708,0,0,4,0,4,26948
1,16,7,918,708,0,0,4,0,4,27476
1,16,7,918,708,0,0,4,0,4,28214
1,16,7,918,708,0,0,4,0,4,27566
1,16,7,918,708,0,0,4,0,4,27670
1,16,7,918,708,0,0,4,0,4,26852
1,16,7,918,708,0,0,4,0,4,27744
1,16,7,918,708,0,0,4,0,4,38380
1,16,7,918,708,0,0,4,0,4,38272
1,16,7,918,708,0,0,4,0,4,30322
1,16,7,918,708,0,0,4,0,4,26879
1,16,7,918,708,0,0,4,0,4,26911
1,16,7,918,708,0,0,4,0,4,26675
1,16,7,918,708,0,0,4,0,4,26845
1,16,7,918,708,0,0,4,0,4,26813
1,16,7,918,708,0,0,4,0,4,26802
1,16,7,918,708,0,0,4,0,4,27052
1,16,7,918,708,0,0,4,0,4,26724
1,16,7,918,708,0,0,4,0,4,26680
1,16,7,918,708,0,0,4,0,4,39953
1,16,7,918,708,0,0,4,0,4,40815
1,16,7,918,708,0,0,4,0,4,40952
1,16,7,918,708,0,0,4,0,4,37362
1,16,7,918,708,0,0,4,0,4,40638
10,8,11,5858,5698,2,0,1,0,14,31516
10,8,11,5858,5698,2,0,1,0,14,26813
10,8,11,5858,5698,2,0,1,0,14,25829
10,8,11,5858,5698,2,0,1,0,14,26058
10,8,11,5858,5698,2,0,1,0,14,26330
10,8,11,5858,5698,2,0,1,0,14,27470
10,8,11,5858,5698,2,0,1,0,14,30079
10,8,11,5858,5698,2,0,1,0,14,29538
10,8,11,5858,5698,2,0,1,0,14,27223
10,8,11,5858,5698,2,0,1,0,14,28336
10,8,11,5858,5698,2,0,1,0,14,28981
10,8,11,5858,5698,2,0,1,0,14,26105
10,8,11,5858,5698,2,0,1,0,14,27398
10,8,11,5858,5698,2,0,1,0,14,27798
10,8,11,5858,5698,2,0,1,0,14,26450
10,8,11,5858,5698,2,0,1,0,14,25863
10,8,11,5858,5698,2,0,1,0,14,26917
10,8,11,5858,5698,2,0,1,0,14,26455
10,8,11,5858,5698,2,0,1,0,14,28019
10,8,11,5858,5698,2,0,1,0,14,27990
10,8,11,5858,5698,2,0,1,0,14,26729
10,8,11,5858,5698,2,0,1,0,14,26182
10,8,11,5858,5698,2,0,1,0,14,31387
10,8,11,5858,5698,2,0,1,0,14,29037
10,8,11,5858,5698,2,0,1,0,14,26833
10,8,11,5858,5698,2,0,1,0,14,28404
10,8,11,5858,5698,2,0,1,0,14,26120
10,8,11,5858,5698,2,0,1,0,14,26476
10,8,11,5858,5698,2,0,1,0,14,28370
10,8,11,5858,5698,2,0,1,0,14,29018
10,8,11,5858,5698,2,0,1,0,14,28261
10,8,11,5858,5698,2,0,1,0,14,26777
10,8,11,5858,5698,2,0,1,0,14,26410
10,8,11,5858,5698,2,0,1,0,14,27169
10,8,11,5858,5698,2,0,1,0,14,27229
10,8,11,5858,5698,2,0,1,0,14,26522
10,8,11,5858,5698,2,0,1,0,14,27283
10,8,11,5858,5698,2,0,1,0,14,26739
10,8,11,5858,5698,2,0,1,0,14,27131
10,8,11,5858,5698,2,0,1,0,14,27262
10,8,11,5858,5698,2,0,1,0,14,26791
10,8,11,5858,5698,2,0,1,0,14,27093
10,8,11,5858,5698,2,0,1,0,14,26906
10,8,11,5858,5698,2,0,1,0,14,26781
10,8,11,5858,5698,2,0,1,0,14,26970
10,8,11,5858,5698,2,0,1,0,14,26764
10,8,11,5858,5698,2,0,1,0,14,26534
10,8,11,5858,5698,2,0,1,0,14,26803
10,8,11,5858,5698,2,0,1,0,14,26206
10,8,11,5858,5698,2,0,1,0,14,25348
10,8,11,5858,5698,2,0,1,0,14,25621
10,8,11,5858,5698,2,0,1,0,14,26987
10,8,11,5858,5698,2,0,1,0,14,27565
10,8,11,5858,5698,2,0,1,0,14,28002
10,8,11,5858,5698,2,0,1,0,14,28535
10,8,11,5858,5698,2,0,1,0,14,28566
10,8,11,5858,5698,2,0,1,0,14,29786
10,8,11,5858,5698,2,0,1,0,14,18876
10,8,11,5858,5698,2,0,1,0,14,18342
10,8,11,5858,5698,2,0,1,0,14,18337
10,8,11,5858,5698,2,0,1,0,14,18213
10,8,11,5858,5698,2,0,1,0,14,18389
10,8,11,5858,5698,2,0,1,0,14,18284
10,8,11,5858,5698,2,0,1,0,14,52438
10,8,11,5858,5698,2,0,1,0,14,18780
10,8,11,5858,5698,2,0,1,0,14,18447
10,8,11,5858,5698,2,0,1,0,14,18471
10,8,11,5858,5698,2,0,1,0,14,18659
10,8,11,5858,5698,2,0,1,0,14,18662
10,8,11,5858,5698,2,0,1,0,14,18468
10,8,11,5858,5698,2,0,1,0,14,18631
10,8,11,5858,5698,2,0,1,0,14,18400
10,8,11,5858,5698,2,0,1,0,14,18365
10,8,11,5858,5698,2,0,1,0,14,18572
10,8,11,5858,5698,2,0,1,0,14,19576
10,8,11,5858,5698,2,0,1,0,14,18710
10,8,11,5858,5698,2,0,1,0,14,19548
10,8,11,5858,5698,2,0,1,0,14,19695
10,8,11,5858,5698,2,0,1,0,14,19311
10,8,11,5858,5698,2,0,1,0,14,19501
10,8,11,5858,5698,2,0,1,0,14,19192
10,8,11,5858,5698,2,0,1,0,14,30234
10,8,11,5858,5698,2,0,1,0,14,18373
10,8,11,5858,5698,2,0,1,0,14,17557
10,8,11,5858,5698,2,0,1,0,14,17432
10,8,11,5858,5698,2,0,1,0,14,17710
10,8,11,5858,5698,2,0,1,0,14,17076
10,8,11,5858,5698,2,0,1,0,14,17218
10,8,11,5858,5698,2,0,1,0,14,18252
10,8,11,5858,5698,2,0,1,0,14,17395
10,8,11,5858,5698,2,0,1,0,14,17898
10,8,11,5858,5698,2,0,1,0,14,17281
10,8,11,5858,5698,2,0,1,0,14,17925
10,8,11,5858,5698,2,0,1,0,14,17654
10,8,11,5858,5698,2,0,1,0,14,17854
10,8,11,5858,5698,2,0,1,0,14,18423
10,8,11,5858,5698,2,0,1,0,14,18022
10,8,11,5858,5698,2,0,1,0,14,18586
10,8,11,5858,5698,2,0,1,0,14,17660
10,8,11,5858,5698,2,0,1,0,14,17385
