cantGimnasios,cantPokeparadas,tamMochila,distanciaOriginal,distanciaNueva,cantPermutacionesParaMejorar,cantPermutacionesParaMantener,cantReemplazosParaMejorar,cantReemplazosParaMantener,tamCamino,tiempo
1,0,12,0,0,0,0,0,0,1,2036
1,0,12,0,0,0,0,0,0,1,1318
1,0,12,0,0,0,0,0,0,1,1160
1,0,12,0,0,0,0,0,0,1,1084
1,0,12,0,0,0,0,0,0,1,970
1,0,12,0,0,0,0,0,0,1,969
1,0,12,0,0,0,0,0,0,1,1003
1,0,12,0,0,0,0,0,0,1,963
1,0,12,0,0,0,0,0,0,1,1058
1,0,12,0,0,0,0,0,0,1,1075
1,0,12,0,0,0,0,0,0,1,1080
1,0,12,0,0,0,0,0,0,1,1035
1,0,12,0,0,0,0,0,0,1,1021
1,0,12,0,0,0,0,0,0,1,966
1,0,12,0,0,0,0,0,0,1,1057
1,0,12,0,0,0,0,0,0,1,949
1,0,12,0,0,0,0,0,0,1,1005
1,0,12,0,0,0,0,0,0,1,1038
1,0,12,0,0,0,0,0,0,1,1083
1,0,12,0,0,0,0,0,0,1,1020
1,0,12,0,0,0,0,0,0,1,1030
1,0,12,0,0,0,0,0,0,1,984
1,0,12,0,0,0,0,0,0,1,1022
1,0,12,0,0,0,0,0,0,1,1069
1,0,12,0,0,0,0,0,0,1,992
1,0,12,0,0,0,0,0,0,1,958
1,0,12,0,0,0,0,0,0,1,1089
1,0,12,0,0,0,0,0,0,1,947
1,0,12,0,0,0,0,0,0,1,1108
1,0,12,0,0,0,0,0,0,1,995
1,0,12,0,0,0,0,0,0,1,982
1,0,12,0,0,0,0,0,0,1,1023
1,0,12,0,0,0,0,0,0,1,975
1,0,12,0,0,0,0,0,0,1,921
1,0,12,0,0,0,0,0,0,1,1034
1,0,12,0,0,0,0,0,0,1,958
1,0,12,0,0,0,0,0,0,1,1018
1,0,12,0,0,0,0,0,0,1,991
1,0,12,0,0,0,0,0,0,1,971
1,0,12,0,0,0,0,0,0,1,1022
1,0,12,0,0,0,0,0,0,1,967
1,0,12,0,0,0,0,0,0,1,1134
1,0,12,0,0,0,0,0,0,1,961
1,0,12,0,0,0,0,0,0,1,986
1,0,12,0,0,0,0,0,0,1,1067
1,0,12,0,0,0,0,0,0,1,981
1,0,12,0,0,0,0,0,0,1,999
1,0,12,0,0,0,0,0,0,1,1063
1,0,12,0,0,0,0,0,0,1,1010
1,0,12,0,0,0,0,0,0,1,966
1,0,12,0,0,0,0,0,0,1,11141
1,0,12,0,0,0,0,0,0,1,1069
1,0,12,0,0,0,0,0,0,1,1052
1,0,12,0,0,0,0,0,0,1,1043
1,0,12,0,0,0,0,0,0,1,1053
1,0,12,0,0,0,0,0,0,1,1149
1,0,12,0,0,0,0,0,0,1,1028
1,0,12,0,0,0,0,0,0,1,1083
1,0,12,0,0,0,0,0,0,1,1035
1,0,12,0,0,0,0,0,0,1,1030
1,0,12,0,0,0,0,0,0,1,1068
1,0,12,0,0,0,0,0,0,1,1123
1,0,12,0,0,0,0,0,0,1,1084
1,0,12,0,0,0,0,0,0,1,1172
1,0,12,0,0,0,0,0,0,1,1065
1,0,12,0,0,0,0,0,0,1,1039
1,0,12,0,0,0,0,0,0,1,1028
1,0,12,0,0,0,0,0,0,1,1034
1,0,12,0,0,0,0,0,0,1,1033
1,0,12,0,0,0,0,0,0,1,1043
1,0,12,0,0,0,0,0,0,1,1215
1,0,12,0,0,0,0,0,0,1,1188
1,0,12,0,0,0,0,0,0,1,1141
1,0,12,0,0,0,0,0,0,1,1062
1,0,12,0,0,0,0,0,0,1,1039
1,0,12,0,0,0,0,0,0,1,1009
1,0,12,0,0,0,0,0,0,1,1125
1,0,12,0,0,0,0,0,0,1,979
1,0,12,0,0,0,0,0,0,1,1121
1,0,12,0,0,0,0,0,0,1,1093
1,0,12,0,0,0,0,0,0,1,1053
1,0,12,0,0,0,0,0,0,1,1307
1,0,12,0,0,0,0,0,0,1,1111
1,0,12,0,0,0,0,0,0,1,1145
1,0,12,0,0,0,0,0,0,1,1005
1,0,12,0,0,0,0,0,0,1,1023
1,0,12,0,0,0,0,0,0,1,1249
1,0,12,0,0,0,0,0,0,1,1170
1,0,12,0,0,0,0,0,0,1,1228
1,0,12,0,0,0,0,0,0,1,1038
1,0,12,0,0,0,0,0,0,1,1042
1,0,12,0,0,0,0,0,0,1,995
1,0,12,0,0,0,0,0,0,1,1217
1,0,12,0,0,0,0,0,0,1,987
1,0,12,0,0,0,0,0,0,1,1090
1,0,12,0,0,0,0,0,0,1,1103
1,0,12,0,0,0,0,0,0,1,1031
1,0,12,0,0,0,0,0,0,1,1007
1,0,12,0,0,0,0,0,0,1,1019
1,0,12,0,0,0,0,0,0,1,998
2,0,12,679,679,0,1,0,0,2,6844
2,0,12,679,679,0,1,0,0,2,4603
2,0,12,679,679,0,1,0,0,2,4403
2,0,12,679,679,0,1,0,0,2,4201
2,0,12,679,679,0,1,0,0,2,4290
2,0,12,679,679,0,1,0,0,2,4021
2,0,12,679,679,0,1,0,0,2,4220
2,0,12,679,679,0,1,0,0,2,4146
2,0,12,679,679,0,1,0,0,2,4075
2,0,12,679,679,0,1,0,0,2,4273
2,0,12,679,679,0,1,0,0,2,3972
2,0,12,679,679,0,1,0,0,2,4129
2,0,12,679,679,0,1,0,0,2,3970
2,0,12,679,679,0,1,0,0,2,3924
2,0,12,679,679,0,1,0,0,2,3856
2,0,12,679,679,0,1,0,0,2,4116
2,0,12,679,679,0,1,0,0,2,4037
2,0,12,679,679,0,1,0,0,2,4065
2,0,12,679,679,0,1,0,0,2,4043
2,0,12,679,679,0,1,0,0,2,4085
2,0,12,679,679,0,1,0,0,2,3916
2,0,12,679,679,0,1,0,0,2,3978
2,0,12,679,679,0,1,0,0,2,3940
2,0,12,679,679,0,1,0,0,2,4002
2,0,12,679,679,0,1,0,0,2,3987
2,0,12,679,679,0,1,0,0,2,4104
2,0,12,679,679,0,1,0,0,2,4327
2,0,12,679,679,0,1,0,0,2,4018
2,0,12,679,679,0,1,0,0,2,4042
2,0,12,679,679,0,1,0,0,2,3838
2,0,12,679,679,0,1,0,0,2,4231
2,0,12,679,679,0,1,0,0,2,4050
2,0,12,679,679,0,1,0,0,2,3824
2,0,12,679,679,0,1,0,0,2,3988
2,0,12,679,679,0,1,0,0,2,3963
2,0,12,679,679,0,1,0,0,2,4069
2,0,12,679,679,0,1,0,0,2,3955
2,0,12,679,679,0,1,0,0,2,3916
2,0,12,679,679,0,1,0,0,2,4004
2,0,12,679,679,0,1,0,0,2,3925
2,0,12,679,679,0,1,0,0,2,3993
2,0,12,679,679,0,1,0,0,2,4054
2,0,12,679,679,0,1,0,0,2,3946
2,0,12,679,679,0,1,0,0,2,3880
2,0,12,679,679,0,1,0,0,2,4035
2,0,12,679,679,0,1,0,0,2,3961
2,0,12,679,679,0,1,0,0,2,4051
2,0,12,679,679,0,1,0,0,2,4143
2,0,12,679,679,0,1,0,0,2,4139
2,0,12,679,679,0,1,0,0,2,4040
2,0,12,679,679,0,1,0,0,2,4064
2,0,12,679,679,0,1,0,0,2,4140
2,0,12,679,679,0,1,0,0,2,3971
2,0,12,679,679,0,1,0,0,2,3986
2,0,12,679,679,0,1,0,0,2,3941
2,0,12,679,679,0,1,0,0,2,3983
2,0,12,679,679,0,1,0,0,2,4055
2,0,12,679,679,0,1,0,0,2,4239
2,0,12,679,679,0,1,0,0,2,4274
2,0,12,679,679,0,1,0,0,2,4565
2,0,12,679,679,0,1,0,0,2,4067
2,0,12,679,679,0,1,0,0,2,3915
2,0,12,679,679,0,1,0,0,2,3875
2,0,12,679,679,0,1,0,0,2,4216
2,0,12,679,679,0,1,0,0,2,3991
2,0,12,679,679,0,1,0,0,2,4473
2,0,12,679,679,0,1,0,0,2,4092
2,0,12,679,679,0,1,0,0,2,4265
2,0,12,679,679,0,1,0,0,2,4015
2,0,12,679,679,0,1,0,0,2,4017
2,0,12,679,679,0,1,0,0,2,3982
2,0,12,679,679,0,1,0,0,2,3888
2,0,12,679,679,0,1,0,0,2,4181
2,0,12,679,679,0,1,0,0,2,4063
2,0,12,679,679,0,1,0,0,2,4134
2,0,12,679,679,0,1,0,0,2,4019
2,0,12,679,679,0,1,0,0,2,4083
2,0,12,679,679,0,1,0,0,2,4117
2,0,12,679,679,0,1,0,0,2,3987
2,0,12,679,679,0,1,0,0,2,4125
2,0,12,679,679,0,1,0,0,2,4381
2,0,12,679,679,0,1,0,0,2,3940
2,0,12,679,679,0,1,0,0,2,3986
2,0,12,679,679,0,1,0,0,2,3823
2,0,12,679,679,0,1,0,0,2,3981
2,0,12,679,679,0,1,0,0,2,4170
2,0,12,679,679,0,1,0,0,2,3881
2,0,12,679,679,0,1,0,0,2,4136
2,0,12,679,679,0,1,0,0,2,4043
2,0,12,679,679,0,1,0,0,2,4127
2,0,12,679,679,0,1,0,0,2,4043
2,0,12,679,679,0,1,0,0,2,4126
2,0,12,679,679,0,1,0,0,2,3787
2,0,12,679,679,0,1,0,0,2,3851
2,0,12,679,679,0,1,0,0,2,4077
2,0,12,679,679,0,1,0,0,2,3928
2,0,12,679,679,0,1,0,0,2,4047
2,0,12,679,679,0,1,0,0,2,4081
2,0,12,679,679,0,1,0,0,2,4008
2,0,12,679,679,0,1,0,0,2,4018
3,0,12,719,719,0,1,0,0,3,6806
3,0,12,719,719,0,1,0,0,3,7428
3,0,12,719,719,0,1,0,0,3,6943
3,0,12,719,719,0,1,0,0,3,6874
3,0,12,719,719,0,1,0,0,3,6837
3,0,12,719,719,0,1,0,0,3,6924
3,0,12,719,719,0,1,0,0,3,7174
3,0,12,719,719,0,1,0,0,3,6936
3,0,12,719,719,0,1,0,0,3,6905
3,0,12,719,719,0,1,0,0,3,6981
3,0,12,719,719,0,1,0,0,3,6832
3,0,12,719,719,0,1,0,0,3,6925
3,0,12,719,719,0,1,0,0,3,6950
3,0,12,719,719,0,1,0,0,3,6794
3,0,12,719,719,0,1,0,0,3,6541
3,0,12,719,719,0,1,0,0,3,7142
3,0,12,719,719,0,1,0,0,3,6666
3,0,12,719,719,0,1,0,0,3,7296
3,0,12,719,719,0,1,0,0,3,6606
3,0,12,719,719,0,1,0,0,3,6896
3,0,12,719,719,0,1,0,0,3,6967
3,0,12,719,719,0,1,0,0,3,6593
3,0,12,719,719,0,1,0,0,3,6693
3,0,12,719,719,0,1,0,0,3,7005
3,0,12,719,719,0,1,0,0,3,6544
3,0,12,719,719,0,1,0,0,3,6928
3,0,12,719,719,0,1,0,0,3,7472
3,0,12,719,719,0,1,0,0,3,6836
3,0,12,719,719,0,1,0,0,3,6824
3,0,12,719,719,0,1,0,0,3,6599
3,0,12,719,719,0,1,0,0,3,7451
3,0,12,719,719,0,1,0,0,3,6890
3,0,12,719,719,0,1,0,0,3,6793
3,0,12,719,719,0,1,0,0,3,6957
3,0,12,719,719,0,1,0,0,3,7014
3,0,12,719,719,0,1,0,0,3,6816
3,0,12,719,719,0,1,0,0,3,6940
3,0,12,719,719,0,1,0,0,3,6572
3,0,12,719,719,0,1,0,0,3,7002
3,0,12,719,719,0,1,0,0,3,7262
3,0,12,719,719,0,1,0,0,3,6538
3,0,12,719,719,0,1,0,0,3,6992
3,0,12,719,719,0,1,0,0,3,7074
3,0,12,719,719,0,1,0,0,3,6570
3,0,12,719,719,0,1,0,0,3,7006
3,0,12,719,719,0,1,0,0,3,7144
3,0,12,719,719,0,1,0,0,3,6831
3,0,12,719,719,0,1,0,0,3,6655
3,0,12,719,719,0,1,0,0,3,6938
3,0,12,719,719,0,1,0,0,3,6575
3,0,12,719,719,0,1,0,0,3,6774
3,0,12,719,719,0,1,0,0,3,7000
3,0,12,719,719,0,1,0,0,3,6753
3,0,12,719,719,0,1,0,0,3,6718
3,0,12,719,719,0,1,0,0,3,7157
3,0,12,719,719,0,1,0,0,3,6767
3,0,12,719,719,0,1,0,0,3,6895
3,0,12,719,719,0,1,0,0,3,6767
3,0,12,719,719,0,1,0,0,3,6564
3,0,12,719,719,0,1,0,0,3,6874
3,0,12,719,719,0,1,0,0,3,7223
3,0,12,719,719,0,1,0,0,3,6922
3,0,12,719,719,0,1,0,0,3,6887
3,0,12,719,719,0,1,0,0,3,6940
3,0,12,719,719,0,1,0,0,3,6701
3,0,12,719,719,0,1,0,0,3,6933
3,0,12,719,719,0,1,0,0,3,7051
3,0,12,719,719,0,1,0,0,3,6900
3,0,12,719,719,0,1,0,0,3,6641
3,0,12,719,719,0,1,0,0,3,6886
3,0,12,719,719,0,1,0,0,3,6578
3,0,12,719,719,0,1,0,0,3,6819
3,0,12,719,719,0,1,0,0,3,7339
3,0,12,719,719,0,1,0,0,3,6804
3,0,12,719,719,0,1,0,0,3,6643
3,0,12,719,719,0,1,0,0,3,6713
3,0,12,719,719,0,1,0,0,3,6644
3,0,12,719,719,0,1,0,0,3,6953
3,0,12,719,719,0,1,0,0,3,6893
3,0,12,719,719,0,1,0,0,3,6845
3,0,12,719,719,0,1,0,0,3,6686
3,0,12,719,719,0,1,0,0,3,7428
3,0,12,719,719,0,1,0,0,3,6806
3,0,12,719,719,0,1,0,0,3,6967
3,0,12,719,719,0,1,0,0,3,6905
3,0,12,719,719,0,1,0,0,3,6899
3,0,12,719,719,0,1,0,0,3,6827
3,0,12,719,719,0,1,0,0,3,7218
3,0,12,719,719,0,1,0,0,3,7013
3,0,12,719,719,0,1,0,0,3,6766
3,0,12,719,719,0,1,0,0,3,7072
3,0,12,719,719,0,1,0,0,3,6891
3,0,12,719,719,0,1,0,0,3,6806
3,0,12,719,719,0,1,0,0,3,6856
3,0,12,719,719,0,1,0,0,3,6745
3,0,12,719,719,0,1,0,0,3,6783
3,0,12,719,719,0,1,0,0,3,7063
3,0,12,719,719,0,1,0,0,3,6791
3,0,12,719,719,0,1,0,0,3,6821
3,0,12,719,719,0,1,0,0,3,6969
3,1,12,1393,1330,1,0,0,0,4,6997
3,1,12,1393,1330,1,0,0,0,4,7492
3,1,12,1393,1330,1,0,0,0,4,7187
3,1,12,1393,1330,1,0,0,0,4,7297
3,1,12,1393,1330,1,0,0,0,4,7166
3,1,12,1393,1330,1,0,0,0,4,6927
3,1,12,1393,1330,1,0,0,0,4,7267
3,1,12,1393,1330,1,0,0,0,4,6907
3,1,12,1393,1330,1,0,0,0,4,7034
3,1,12,1393,1330,1,0,0,0,4,7206
3,1,12,1393,1330,1,0,0,0,4,6822
3,1,12,1393,1330,1,0,0,0,4,6928
3,1,12,1393,1330,1,0,0,0,4,6999
3,1,12,1393,1330,1,0,0,0,4,6916
3,1,12,1393,1330,1,0,0,0,4,6912
3,1,12,1393,1330,1,0,0,0,4,7124
3,1,12,1393,1330,1,0,0,0,4,17056
3,1,12,1393,1330,1,0,0,0,4,6462
3,1,12,1393,1330,1,0,0,0,4,6739
3,1,12,1393,1330,1,0,0,0,4,6367
3,1,12,1393,1330,1,0,0,0,4,6514
3,1,12,1393,1330,1,0,0,0,4,6680
3,1,12,1393,1330,1,0,0,0,4,6224
3,1,12,1393,1330,1,0,0,0,4,6389
3,1,12,1393,1330,1,0,0,0,4,6665
3,1,12,1393,1330,1,0,0,0,4,6382
3,1,12,1393,1330,1,0,0,0,4,6392
3,1,12,1393,1330,1,0,0,0,4,6773
3,1,12,1393,1330,1,0,0,0,4,6455
3,1,12,1393,1330,1,0,0,0,4,6620
3,1,12,1393,1330,1,0,0,0,4,6716
3,1,12,1393,1330,1,0,0,0,4,6531
3,1,12,1393,1330,1,0,0,0,4,6624
3,1,12,1393,1330,1,0,0,0,4,6938
3,1,12,1393,1330,1,0,0,0,4,6311
3,1,12,1393,1330,1,0,0,0,4,6434
3,1,12,1393,1330,1,0,0,0,4,6876
3,1,12,1393,1330,1,0,0,0,4,6728
3,1,12,1393,1330,1,0,0,0,4,6386
3,1,12,1393,1330,1,0,0,0,4,6726
3,1,12,1393,1330,1,0,0,0,4,6365
3,1,12,1393,1330,1,0,0,0,4,6403
3,1,12,1393,1330,1,0,0,0,4,6503
3,1,12,1393,1330,1,0,0,0,4,6504
3,1,12,1393,1330,1,0,0,0,4,6649
3,1,12,1393,1330,1,0,0,0,4,6535
3,1,12,1393,1330,1,0,0,0,4,6498
3,1,12,1393,1330,1,0,0,0,4,6556
3,1,12,1393,1330,1,0,0,0,4,6470
3,1,12,1393,1330,1,0,0,0,4,6488
3,1,12,1393,1330,1,0,0,0,4,6684
3,1,12,1393,1330,1,0,0,0,4,6485
3,1,12,1393,1330,1,0,0,0,4,6328
3,1,12,1393,1330,1,0,0,0,4,6770
3,1,12,1393,1330,1,0,0,0,4,6537
3,1,12,1393,1330,1,0,0,0,4,6712
3,1,12,1393,1330,1,0,0,0,4,6561
3,1,12,1393,1330,1,0,0,0,4,6477
3,1,12,1393,1330,1,0,0,0,4,6447
3,1,12,1393,1330,1,0,0,0,4,6797
3,1,12,1393,1330,1,0,0,0,4,6282
3,1,12,1393,1330,1,0,0,0,4,6519
3,1,12,1393,1330,1,0,0,0,4,6614
3,1,12,1393,1330,1,0,0,0,4,6555
3,1,12,1393,1330,1,0,0,0,4,6521
3,1,12,1393,1330,1,0,0,0,4,6639
3,1,12,1393,1330,1,0,0,0,4,6656
3,1,12,1393,1330,1,0,0,0,4,6376
3,1,12,1393,1330,1,0,0,0,4,6577
3,1,12,1393,1330,1,0,0,0,4,6548
3,1,12,1393,1330,1,0,0,0,4,6547
3,1,12,1393,1330,1,0,0,0,4,6672
3,1,12,1393,1330,1,0,0,0,4,6326
3,1,12,1393,1330,1,0,0,0,4,6542
3,1,12,1393,1330,1,0,0,0,4,6449
3,1,12,1393,1330,1,0,0,0,4,6425
3,1,12,1393,1330,1,0,0,0,4,6506
3,1,12,1393,1330,1,0,0,0,4,6648
3,1,12,1393,1330,1,0,0,0,4,6502
3,1,12,1393,1330,1,0,0,0,4,6438
3,1,12,1393,1330,1,0,0,0,4,6881
3,1,12,1393,1330,1,0,0,0,4,6440
3,1,12,1393,1330,1,0,0,0,4,6382
3,1,12,1393,1330,1,0,0,0,4,6622
3,1,12,1393,1330,1,0,0,0,4,6418
3,1,12,1393,1330,1,0,0,0,4,6366
3,1,12,1393,1330,1,0,0,0,4,6783
3,1,12,1393,1330,1,0,0,0,4,6413
3,1,12,1393,1330,1,0,0,0,4,6591
3,1,12,1393,1330,1,0,0,0,4,6663
3,1,12,1393,1330,1,0,0,0,4,6403
3,1,12,1393,1330,1,0,0,0,4,6364
3,1,12,1393,1330,1,0,0,0,4,6552
3,1,12,1393,1330,1,0,0,0,4,6288
3,1,12,1393,1330,1,0,0,0,4,6272
3,1,12,1393,1330,1,0,0,0,4,6451
3,1,12,1393,1330,1,0,0,0,4,6465
3,1,12,1393,1330,1,0,0,0,4,6442
3,1,12,1393,1330,1,0,0,0,4,6465
3,1,12,1393,1330,1,0,0,0,4,6654
5,0,12,1539,1539,0,0,0,0,5,7335
5,0,12,1539,1539,0,0,0,0,5,10476
5,0,12,1539,1539,0,0,0,0,5,10278
5,0,12,1539,1539,0,0,0,0,5,20064
5,0,12,1539,1539,0,0,0,0,5,9497
5,0,12,1539,1539,0,0,0,0,5,9603
5,0,12,1539,1539,0,0,0,0,5,9596
5,0,12,1539,1539,0,0,0,0,5,9620
5,0,12,1539,1539,0,0,0,0,5,8964
5,0,12,1539,1539,0,0,0,0,5,9204
5,0,12,1539,1539,0,0,0,0,5,8961
5,0,12,1539,1539,0,0,0,0,5,8863
5,0,12,1539,1539,0,0,0,0,5,8641
5,0,12,1539,1539,0,0,0,0,5,8739
5,0,12,1539,1539,0,0,0,0,5,8814
5,0,12,1539,1539,0,0,0,0,5,8739
5,0,12,1539,1539,0,0,0,0,5,8688
5,0,12,1539,1539,0,0,0,0,5,8746
5,0,12,1539,1539,0,0,0,0,5,8740
5,0,12,1539,1539,0,0,0,0,5,8894
5,0,12,1539,1539,0,0,0,0,5,8718
5,0,12,1539,1539,0,0,0,0,5,8886
5,0,12,1539,1539,0,0,0,0,5,19152
5,0,12,1539,1539,0,0,0,0,5,9318
5,0,12,1539,1539,0,0,0,0,5,9508
5,0,12,1539,1539,0,0,0,0,5,9304
5,0,12,1539,1539,0,0,0,0,5,8605
5,0,12,1539,1539,0,0,0,0,5,8860
5,0,12,1539,1539,0,0,0,0,5,9062
5,0,12,1539,1539,0,0,0,0,5,8684
5,0,12,1539,1539,0,0,0,0,5,8733
5,0,12,1539,1539,0,0,0,0,5,8960
5,0,12,1539,1539,0,0,0,0,5,8895
5,0,12,1539,1539,0,0,0,0,5,8737
5,0,12,1539,1539,0,0,0,0,5,8655
5,0,12,1539,1539,0,0,0,0,5,8682
5,0,12,1539,1539,0,0,0,0,5,8799
5,0,12,1539,1539,0,0,0,0,5,8794
5,0,12,1539,1539,0,0,0,0,5,8832
5,0,12,1539,1539,0,0,0,0,5,8806
5,0,12,1539,1539,0,0,0,0,5,8856
5,0,12,1539,1539,0,0,0,0,5,8780
5,0,12,1539,1539,0,0,0,0,5,8807
5,0,12,1539,1539,0,0,0,0,5,8960
5,0,12,1539,1539,0,0,0,0,5,8745
5,0,12,1539,1539,0,0,0,0,5,8917
5,0,12,1539,1539,0,0,0,0,5,8706
5,0,12,1539,1539,0,0,0,0,5,8930
5,0,12,1539,1539,0,0,0,0,5,8606
5,0,12,1539,1539,0,0,0,0,5,8849
5,0,12,1539,1539,0,0,0,0,5,8779
5,0,12,1539,1539,0,0,0,0,5,8924
5,0,12,1539,1539,0,0,0,0,5,8906
5,0,12,1539,1539,0,0,0,0,5,8843
5,0,12,1539,1539,0,0,0,0,5,8790
5,0,12,1539,1539,0,0,0,0,5,8870
5,0,12,1539,1539,0,0,0,0,5,8675
5,0,12,1539,1539,0,0,0,0,5,8779
5,0,12,1539,1539,0,0,0,0,5,8748
5,0,12,1539,1539,0,0,0,0,5,8694
5,0,12,1539,1539,0,0,0,0,5,8587
5,0,12,1539,1539,0,0,0,0,5,8836
5,0,12,1539,1539,0,0,0,0,5,8831
5,0,12,1539,1539,0,0,0,0,5,8785
5,0,12,1539,1539,0,0,0,0,5,8763
5,0,12,1539,1539,0,0,0,0,5,8773
5,0,12,1539,1539,0,0,0,0,5,8915
5,0,12,1539,1539,0,0,0,0,5,8730
5,0,12,1539,1539,0,0,0,0,5,8834
5,0,12,1539,1539,0,0,0,0,5,8871
5,0,12,1539,1539,0,0,0,0,5,8663
5,0,12,1539,1539,0,0,0,0,5,8757
5,0,12,1539,1539,0,0,0,0,5,8557
5,0,12,1539,1539,0,0,0,0,5,8906
5,0,12,1539,1539,0,0,0,0,5,8716
5,0,12,1539,1539,0,0,0,0,5,8863
5,0,12,1539,1539,0,0,0,0,5,8714
5,0,12,1539,1539,0,0,0,0,5,8880
5,0,12,1539,1539,0,0,0,0,5,8870
5,0,12,1539,1539,0,0,0,0,5,8748
5,0,12,1539,1539,0,0,0,0,5,8674
5,0,12,1539,1539,0,0,0,0,5,8723
5,0,12,1539,1539,0,0,0,0,5,8534
5,0,12,1539,1539,0,0,0,0,5,8857
5,0,12,1539,1539,0,0,0,0,5,8805
5,0,12,1539,1539,0,0,0,0,5,8706
5,0,12,1539,1539,0,0,0,0,5,8833
5,0,12,1539,1539,0,0,0,0,5,8851
5,0,12,1539,1539,0,0,0,0,5,8887
5,0,12,1539,1539,0,0,0,0,5,8741
5,0,12,1539,1539,0,0,0,0,5,8614
5,0,12,1539,1539,0,0,0,0,5,8680
5,0,12,1539,1539,0,0,0,0,5,8927
5,0,12,1539,1539,0,0,0,0,5,8765
5,0,12,1539,1539,0,0,0,0,5,8896
5,0,12,1539,1539,0,0,0,0,5,8774
5,0,12,1539,1539,0,0,0,0,5,8652
5,0,12,1539,1539,0,0,0,0,5,8758
5,0,12,1539,1539,0,0,0,0,5,9003
5,0,12,1539,1539,0,0,0,0,5,8854
1,5,12,924,705,1,0,0,0,3,4346
1,5,12,924,705,1,0,0,0,3,4352
1,5,12,924,705,1,0,0,0,3,4185
1,5,12,924,705,1,0,0,0,3,4300
1,5,12,924,705,1,0,0,0,3,3901
1,5,12,924,705,1,0,0,0,3,4020
1,5,12,924,705,1,0,0,0,3,3839
1,5,12,924,705,1,0,0,0,3,3966
1,5,12,924,705,1,0,0,0,3,4092
1,5,12,924,705,1,0,0,0,3,3874
1,5,12,924,705,1,0,0,0,3,3750
1,5,12,924,705,1,0,0,0,3,3905
1,5,12,924,705,1,0,0,0,3,4064
1,5,12,924,705,1,0,0,0,3,4054
1,5,12,924,705,1,0,0,0,3,4055
1,5,12,924,705,1,0,0,0,3,3961
1,5,12,924,705,1,0,0,0,3,3883
1,5,12,924,705,1,0,0,0,3,3897
1,5,12,924,705,1,0,0,0,3,3932
1,5,12,924,705,1,0,0,0,3,3764
1,5,12,924,705,1,0,0,0,3,4015
1,5,12,924,705,1,0,0,0,3,3913
1,5,12,924,705,1,0,0,0,3,3980
1,5,12,924,705,1,0,0,0,3,4068
1,5,12,924,705,1,0,0,0,3,3914
1,5,12,924,705,1,0,0,0,3,3877
1,5,12,924,705,1,0,0,0,3,3930
1,5,12,924,705,1,0,0,0,3,3855
1,5,12,924,705,1,0,0,0,3,3828
1,5,12,924,705,1,0,0,0,3,4007
1,5,12,924,705,1,0,0,0,3,3992
1,5,12,924,705,1,0,0,0,3,4048
1,5,12,924,705,1,0,0,0,3,3970
1,5,12,924,705,1,0,0,0,3,3642
1,5,12,924,705,1,0,0,0,3,3832
1,5,12,924,705,1,0,0,0,3,4206
1,5,12,924,705,1,0,0,0,3,4069
1,5,12,924,705,1,0,0,0,3,4053
1,5,12,924,705,1,0,0,0,3,4184
1,5,12,924,705,1,0,0,0,3,4385
1,5,12,924,705,1,0,0,0,3,3832
1,5,12,924,705,1,0,0,0,3,4045
1,5,12,924,705,1,0,0,0,3,3731
1,5,12,924,705,1,0,0,0,3,3926
1,5,12,924,705,1,0,0,0,3,3776
1,5,12,924,705,1,0,0,0,3,3832
1,5,12,924,705,1,0,0,0,3,3899
1,5,12,924,705,1,0,0,0,3,3820
1,5,12,924,705,1,0,0,0,3,3841
1,5,12,924,705,1,0,0,0,3,4140
1,5,12,924,705,1,0,0,0,3,3900
1,5,12,924,705,1,0,0,0,3,3887
1,5,12,924,705,1,0,0,0,3,3885
1,5,12,924,705,1,0,0,0,3,3986
1,5,12,924,705,1,0,0,0,3,3917
1,5,12,924,705,1,0,0,0,3,3927
1,5,12,924,705,1,0,0,0,3,3969
1,5,12,924,705,1,0,0,0,3,4069
1,5,12,924,705,1,0,0,0,3,3964
1,5,12,924,705,1,0,0,0,3,3836
1,5,12,924,705,1,0,0,0,3,3808
1,5,12,924,705,1,0,0,0,3,4021
1,5,12,924,705,1,0,0,0,3,14089
1,5,12,924,705,1,0,0,0,3,4437
1,5,12,924,705,1,0,0,0,3,4077
1,5,12,924,705,1,0,0,0,3,4005
1,5,12,924,705,1,0,0,0,3,3976
1,5,12,924,705,1,0,0,0,3,4018
1,5,12,924,705,1,0,0,0,3,3824
1,5,12,924,705,1,0,0,0,3,3921
1,5,12,924,705,1,0,0,0,3,3751
1,5,12,924,705,1,0,0,0,3,3916
1,5,12,924,705,1,0,0,0,3,3922
1,5,12,924,705,1,0,0,0,3,3783
1,5,12,924,705,1,0,0,0,3,3777
1,5,12,924,705,1,0,0,0,3,3782
1,5,12,924,705,1,0,0,0,3,3733
1,5,12,924,705,1,0,0,0,3,3901
1,5,12,924,705,1,0,0,0,3,3851
1,5,12,924,705,1,0,0,0,3,3926
1,5,12,924,705,1,0,0,0,3,3863
1,5,12,924,705,1,0,0,0,3,3999
1,5,12,924,705,1,0,0,0,3,3917
1,5,12,924,705,1,0,0,0,3,3785
1,5,12,924,705,1,0,0,0,3,3823
1,5,12,924,705,1,0,0,0,3,3791
1,5,12,924,705,1,0,0,0,3,3956
1,5,12,924,705,1,0,0,0,3,3760
1,5,12,924,705,1,0,0,0,3,3918
1,5,12,924,705,1,0,0,0,3,3731
1,5,12,924,705,1,0,0,0,3,3831
1,5,12,924,705,1,0,0,0,3,3889
1,5,12,924,705,1,0,0,0,3,3918
1,5,12,924,705,1,0,0,0,3,3843
1,5,12,924,705,1,0,0,0,3,3772
1,5,12,924,705,1,0,0,0,3,4049
1,5,12,924,705,1,0,0,0,3,3871
1,5,12,924,705,1,0,0,0,3,3961
1,5,12,924,705,1,0,0,0,3,4203
1,5,12,924,705,1,0,0,0,3,4012
4,3,12,1179,1179,0,0,0,0,5,7227
4,3,12,1179,1179,0,0,0,0,5,9413
4,3,12,1179,1179,0,0,0,0,5,9555
4,3,12,1179,1179,0,0,0,0,5,8928
4,3,12,1179,1179,0,0,0,0,5,8767
4,3,12,1179,1179,0,0,0,0,5,8941
4,3,12,1179,1179,0,0,0,0,5,8740
4,3,12,1179,1179,0,0,0,0,5,8819
4,3,12,1179,1179,0,0,0,0,5,8790
4,3,12,1179,1179,0,0,0,0,5,8725
4,3,12,1179,1179,0,0,0,0,5,8704
4,3,12,1179,1179,0,0,0,0,5,8787
4,3,12,1179,1179,0,0,0,0,5,9058
4,3,12,1179,1179,0,0,0,0,5,8856
4,3,12,1179,1179,0,0,0,0,5,8764
4,3,12,1179,1179,0,0,0,0,5,8766
4,3,12,1179,1179,0,0,0,0,5,8952
4,3,12,1179,1179,0,0,0,0,5,8656
4,3,12,1179,1179,0,0,0,0,5,8951
4,3,12,1179,1179,0,0,0,0,5,8744
4,3,12,1179,1179,0,0,0,0,5,9030
4,3,12,1179,1179,0,0,0,0,5,8598
4,3,12,1179,1179,0,0,0,0,5,8980
4,3,12,1179,1179,0,0,0,0,5,8680
4,3,12,1179,1179,0,0,0,0,5,8917
4,3,12,1179,1179,0,0,0,0,5,8769
4,3,12,1179,1179,0,0,0,0,5,8749
4,3,12,1179,1179,0,0,0,0,5,8818
4,3,12,1179,1179,0,0,0,0,5,8716
4,3,12,1179,1179,0,0,0,0,5,8736
4,3,12,1179,1179,0,0,0,0,5,8793
4,3,12,1179,1179,0,0,0,0,5,8650
4,3,12,1179,1179,0,0,0,0,5,8750
4,3,12,1179,1179,0,0,0,0,5,8705
4,3,12,1179,1179,0,0,0,0,5,8885
4,3,12,1179,1179,0,0,0,0,5,8863
4,3,12,1179,1179,0,0,0,0,5,8921
4,3,12,1179,1179,0,0,0,0,5,8880
4,3,12,1179,1179,0,0,0,0,5,8777
4,3,12,1179,1179,0,0,0,0,5,8610
4,3,12,1179,1179,0,0,0,0,5,8838
4,3,12,1179,1179,0,0,0,0,5,8871
4,3,12,1179,1179,0,0,0,0,5,8773
4,3,12,1179,1179,0,0,0,0,5,8753
4,3,12,1179,1179,0,0,0,0,5,8786
4,3,12,1179,1179,0,0,0,0,5,8721
4,3,12,1179,1179,0,0,0,0,5,8813
4,3,12,1179,1179,0,0,0,0,5,8815
4,3,12,1179,1179,0,0,0,0,5,9049
4,3,12,1179,1179,0,0,0,0,5,8856
4,3,12,1179,1179,0,0,0,0,5,8796
4,3,12,1179,1179,0,0,0,0,5,8773
4,3,12,1179,1179,0,0,0,0,5,8777
4,3,12,1179,1179,0,0,0,0,5,8855
4,3,12,1179,1179,0,0,0,0,5,8863
4,3,12,1179,1179,0,0,0,0,5,8675
4,3,12,1179,1179,0,0,0,0,5,8766
4,3,12,1179,1179,0,0,0,0,5,8737
4,3,12,1179,1179,0,0,0,0,5,8803
4,3,12,1179,1179,0,0,0,0,5,8751
4,3,12,1179,1179,0,0,0,0,5,8823
4,3,12,1179,1179,0,0,0,0,5,8882
4,3,12,1179,1179,0,0,0,0,5,8823
4,3,12,1179,1179,0,0,0,0,5,8857
4,3,12,1179,1179,0,0,0,0,5,8646
4,3,12,1179,1179,0,0,0,0,5,8899
4,3,12,1179,1179,0,0,0,0,5,8743
4,3,12,1179,1179,0,0,0,0,5,8842
4,3,12,1179,1179,0,0,0,0,5,8923
4,3,12,1179,1179,0,0,0,0,5,8670
4,3,12,1179,1179,0,0,0,0,5,8719
4,3,12,1179,1179,0,0,0,0,5,8712
4,3,12,1179,1179,0,0,0,0,5,9487
4,3,12,1179,1179,0,0,0,0,5,9372
4,3,12,1179,1179,0,0,0,0,5,8650
4,3,12,1179,1179,0,0,0,0,5,8902
4,3,12,1179,1179,0,0,0,0,5,8845
4,3,12,1179,1179,0,0,0,0,5,8923
4,3,12,1179,1179,0,0,0,0,5,8778
4,3,12,1179,1179,0,0,0,0,5,8790
4,3,12,1179,1179,0,0,0,0,5,8722
4,3,12,1179,1179,0,0,0,0,5,8878
4,3,12,1179,1179,0,0,0,0,5,8841
4,3,12,1179,1179,0,0,0,0,5,9013
4,3,12,1179,1179,0,0,0,0,5,8686
4,3,12,1179,1179,0,0,0,0,5,8862
4,3,12,1179,1179,0,0,0,0,5,8834
4,3,12,1179,1179,0,0,0,0,5,8677
4,3,12,1179,1179,0,0,0,0,5,8828
4,3,12,1179,1179,0,0,0,0,5,8870
4,3,12,1179,1179,0,0,0,0,5,9201
4,3,12,1179,1179,0,0,0,0,5,8759
4,3,12,1179,1179,0,0,0,0,5,9039
4,3,12,1179,1179,0,0,0,0,5,8822
4,3,12,1179,1179,0,0,0,0,5,9036
4,3,12,1179,1179,0,0,0,0,5,8874
4,3,12,1179,1179,0,0,0,0,5,9089
4,3,12,1179,1179,0,0,0,0,5,8964
4,3,12,1179,1179,0,0,0,0,5,8753
4,3,12,1179,1179,0,0,0,0,5,8878
6,2,12,2263,2085,3,0,0,0,7,22364
6,2,12,2263,2085,3,0,0,0,7,37763
6,2,12,2263,2085,3,0,0,0,7,25378
6,2,12,2263,2085,3,0,0,0,7,25270
6,2,12,2263,2085,3,0,0,0,7,25145
6,2,12,2263,2085,3,0,0,0,7,25246
6,2,12,2263,2085,3,0,0,0,7,25135
6,2,12,2263,2085,3,0,0,0,7,24990
6,2,12,2263,2085,3,0,0,0,7,25556
6,2,12,2263,2085,3,0,0,0,7,25229
6,2,12,2263,2085,3,0,0,0,7,25538
6,2,12,2263,2085,3,0,0,0,7,25559
6,2,12,2263,2085,3,0,0,0,7,25206
6,2,12,2263,2085,3,0,0,0,7,25086
6,2,12,2263,2085,3,0,0,0,7,25112
6,2,12,2263,2085,3,0,0,0,7,25045
6,2,12,2263,2085,3,0,0,0,7,25170
6,2,12,2263,2085,3,0,0,0,7,25092
6,2,12,2263,2085,3,0,0,0,7,25361
6,2,12,2263,2085,3,0,0,0,7,25335
6,2,12,2263,2085,3,0,0,0,7,25279
6,2,12,2263,2085,3,0,0,0,7,25218
6,2,12,2263,2085,3,0,0,0,7,25054
6,2,12,2263,2085,3,0,0,0,7,25382
6,2,12,2263,2085,3,0,0,0,7,25118
6,2,12,2263,2085,3,0,0,0,7,25176
6,2,12,2263,2085,3,0,0,0,7,25383
6,2,12,2263,2085,3,0,0,0,7,25035
6,2,12,2263,2085,3,0,0,0,7,25146
6,2,12,2263,2085,3,0,0,0,7,36920
6,2,12,2263,2085,3,0,0,0,7,35812
6,2,12,2263,2085,3,0,0,0,7,25103
6,2,12,2263,2085,3,0,0,0,7,25034
6,2,12,2263,2085,3,0,0,0,7,25139
6,2,12,2263,2085,3,0,0,0,7,25169
6,2,12,2263,2085,3,0,0,0,7,25176
6,2,12,2263,2085,3,0,0,0,7,25192
6,2,12,2263,2085,3,0,0,0,7,25341
6,2,12,2263,2085,3,0,0,0,7,25598
6,2,12,2263,2085,3,0,0,0,7,25194
6,2,12,2263,2085,3,0,0,0,7,25010
6,2,12,2263,2085,3,0,0,0,7,25181
6,2,12,2263,2085,3,0,0,0,7,25282
6,2,12,2263,2085,3,0,0,0,7,25310
6,2,12,2263,2085,3,0,0,0,7,25180
6,2,12,2263,2085,3,0,0,0,7,25064
6,2,12,2263,2085,3,0,0,0,7,25068
6,2,12,2263,2085,3,0,0,0,7,25125
6,2,12,2263,2085,3,0,0,0,7,25033
6,2,12,2263,2085,3,0,0,0,7,25034
6,2,12,2263,2085,3,0,0,0,7,41434
6,2,12,2263,2085,3,0,0,0,7,37228
6,2,12,2263,2085,3,0,0,0,7,25378
6,2,12,2263,2085,3,0,0,0,7,25348
6,2,12,2263,2085,3,0,0,0,7,25106
6,2,12,2263,2085,3,0,0,0,7,25442
6,2,12,2263,2085,3,0,0,0,7,25297
6,2,12,2263,2085,3,0,0,0,7,25243
6,2,12,2263,2085,3,0,0,0,7,25240
6,2,12,2263,2085,3,0,0,0,7,25233
6,2,12,2263,2085,3,0,0,0,7,25103
6,2,12,2263,2085,3,0,0,0,7,25073
6,2,12,2263,2085,3,0,0,0,7,25037
6,2,12,2263,2085,3,0,0,0,7,25070
6,2,12,2263,2085,3,0,0,0,7,25218
6,2,12,2263,2085,3,0,0,0,7,25011
6,2,12,2263,2085,3,0,0,0,7,24987
6,2,12,2263,2085,3,0,0,0,7,25088
6,2,12,2263,2085,3,0,0,0,7,25257
6,2,12,2263,2085,3,0,0,0,7,25304
6,2,12,2263,2085,3,0,0,0,7,25034
6,2,12,2263,2085,3,0,0,0,7,25105
6,2,12,2263,2085,3,0,0,0,7,24999
6,2,12,2263,2085,3,0,0,0,7,25193
6,2,12,2263,2085,3,0,0,0,7,26641
6,2,12,2263,2085,3,0,0,0,7,25222
6,2,12,2263,2085,3,0,0,0,7,25063
6,2,12,2263,2085,3,0,0,0,7,25054
6,2,12,2263,2085,3,0,0,0,7,25087
6,2,12,2263,2085,3,0,0,0,7,25140
6,2,12,2263,2085,3,0,0,0,7,24938
6,2,12,2263,2085,3,0,0,0,7,25129
6,2,12,2263,2085,3,0,0,0,7,25228
6,2,12,2263,2085,3,0,0,0,7,25107
6,2,12,2263,2085,3,0,0,0,7,24890
6,2,12,2263,2085,3,0,0,0,7,25028
6,2,12,2263,2085,3,0,0,0,7,25187
6,2,12,2263,2085,3,0,0,0,7,25097
6,2,12,2263,2085,3,0,0,0,7,25144
6,2,12,2263,2085,3,0,0,0,7,25204
6,2,12,2263,2085,3,0,0,0,7,25154
6,2,12,2263,2085,3,0,0,0,7,24833
6,2,12,2263,2085,3,0,0,0,7,25187
6,2,12,2263,2085,3,0,0,0,7,25147
6,2,12,2263,2085,3,0,0,0,7,25431
6,2,12,2263,2085,3,0,0,0,7,25082
6,2,12,2263,2085,3,0,0,0,7,24977
6,2,12,2263,2085,3,0,0,0,7,25132
6,2,12,2263,2085,3,0,0,0,7,24926
6,2,12,2263,2085,3,0,0,0,7,25163
5,4,12,1511,1511,0,0,0,0,6,9741
5,4,12,1511,1511,0,0,0,0,6,14393
5,4,12,1511,1511,0,0,0,0,6,34321
5,4,12,1511,1511,0,0,0,0,6,14075
5,4,12,1511,1511,0,0,0,0,6,14623
5,4,12,1511,1511,0,0,0,0,6,14536
5,4,12,1511,1511,0,0,0,0,6,14251
5,4,12,1511,1511,0,0,0,0,6,13847
5,4,12,1511,1511,0,0,0,0,6,22535
5,4,12,1511,1511,0,0,0,0,6,12513
5,4,12,1511,1511,0,0,0,0,6,13877
5,4,12,1511,1511,0,0,0,0,6,13615
5,4,12,1511,1511,0,0,0,0,6,13883
5,4,12,1511,1511,0,0,0,0,6,13172
5,4,12,1511,1511,0,0,0,0,6,12705
5,4,12,1511,1511,0,0,0,0,6,12558
5,4,12,1511,1511,0,0,0,0,6,12828
5,4,12,1511,1511,0,0,0,0,6,12784
5,4,12,1511,1511,0,0,0,0,6,12912
5,4,12,1511,1511,0,0,0,0,6,12963
5,4,12,1511,1511,0,0,0,0,6,11701
5,4,12,1511,1511,0,0,0,0,6,11570
5,4,12,1511,1511,0,0,0,0,6,12232
5,4,12,1511,1511,0,0,0,0,6,10873
5,4,12,1511,1511,0,0,0,0,6,11202
5,4,12,1511,1511,0,0,0,0,6,11277
5,4,12,1511,1511,0,0,0,0,6,11145
5,4,12,1511,1511,0,0,0,0,6,12507
5,4,12,1511,1511,0,0,0,0,6,11606
5,4,12,1511,1511,0,0,0,0,6,11602
5,4,12,1511,1511,0,0,0,0,6,11617
5,4,12,1511,1511,0,0,0,0,6,12876
5,4,12,1511,1511,0,0,0,0,6,12527
5,4,12,1511,1511,0,0,0,0,6,12388
5,4,12,1511,1511,0,0,0,0,6,13127
5,4,12,1511,1511,0,0,0,0,6,11719
5,4,12,1511,1511,0,0,0,0,6,13154
5,4,12,1511,1511,0,0,0,0,6,12973
5,4,12,1511,1511,0,0,0,0,6,12931
5,4,12,1511,1511,0,0,0,0,6,12815
5,4,12,1511,1511,0,0,0,0,6,12892
5,4,12,1511,1511,0,0,0,0,6,12828
5,4,12,1511,1511,0,0,0,0,6,12797
5,4,12,1511,1511,0,0,0,0,6,12922
5,4,12,1511,1511,0,0,0,0,6,12879
5,4,12,1511,1511,0,0,0,0,6,12969
5,4,12,1511,1511,0,0,0,0,6,12549
5,4,12,1511,1511,0,0,0,0,6,11661
5,4,12,1511,1511,0,0,0,0,6,12187
5,4,12,1511,1511,0,0,0,0,6,12865
5,4,12,1511,1511,0,0,0,0,6,12513
5,4,12,1511,1511,0,0,0,0,6,13002
5,4,12,1511,1511,0,0,0,0,6,12622
5,4,12,1511,1511,0,0,0,0,6,13850
5,4,12,1511,1511,0,0,0,0,6,22542
5,4,12,1511,1511,0,0,0,0,6,13004
5,4,12,1511,1511,0,0,0,0,6,12909
5,4,12,1511,1511,0,0,0,0,6,12822
5,4,12,1511,1511,0,0,0,0,6,12870
5,4,12,1511,1511,0,0,0,0,6,12817
5,4,12,1511,1511,0,0,0,0,6,12739
5,4,12,1511,1511,0,0,0,0,6,12801
5,4,12,1511,1511,0,0,0,0,6,12849
5,4,12,1511,1511,0,0,0,0,6,12952
5,4,12,1511,1511,0,0,0,0,6,12909
5,4,12,1511,1511,0,0,0,0,6,12727
5,4,12,1511,1511,0,0,0,0,6,12204
5,4,12,1511,1511,0,0,0,0,6,12387
5,4,12,1511,1511,0,0,0,0,6,12474
5,4,12,1511,1511,0,0,0,0,6,13009
5,4,12,1511,1511,0,0,0,0,6,12769
5,4,12,1511,1511,0,0,0,0,6,13239
5,4,12,1511,1511,0,0,0,0,6,12179
5,4,12,1511,1511,0,0,0,0,6,11672
5,4,12,1511,1511,0,0,0,0,6,11625
5,4,12,1511,1511,0,0,0,0,6,12564
5,4,12,1511,1511,0,0,0,0,6,11354
5,4,12,1511,1511,0,0,0,0,6,11552
5,4,12,1511,1511,0,0,0,0,6,11100
5,4,12,1511,1511,0,0,0,0,6,12602
5,4,12,1511,1511,0,0,0,0,6,12300
5,4,12,1511,1511,0,0,0,0,6,11948
5,4,12,1511,1511,0,0,0,0,6,12004
5,4,12,1511,1511,0,0,0,0,6,11394
5,4,12,1511,1511,0,0,0,0,6,11933
5,4,12,1511,1511,0,0,0,0,6,12315
5,4,12,1511,1511,0,0,0,0,6,13109
5,4,12,1511,1511,0,0,0,0,6,11765
5,4,12,1511,1511,0,0,0,0,6,12048
5,4,12,1511,1511,0,0,0,0,6,12341
5,4,12,1511,1511,0,0,0,0,6,12826
5,4,12,1511,1511,0,0,0,0,6,12136
5,4,12,1511,1511,0,0,0,0,6,12616
5,4,12,1511,1511,0,0,0,0,6,11728
5,4,12,1511,1511,0,0,0,0,6,12405
5,4,12,1511,1511,0,0,0,0,6,12329
5,4,12,1511,1511,0,0,0,0,6,11577
5,4,12,1511,1511,0,0,0,0,6,11487
5,4,12,1511,1511,0,0,0,0,6,12755
5,4,12,1511,1511,0,0,0,0,6,13122
10,0,12,2185,2185,0,0,0,0,10,26629
10,0,12,2185,2185,0,0,0,0,10,34050
10,0,12,2185,2185,0,0,0,0,10,32420
10,0,12,2185,2185,0,0,0,0,10,33027
10,0,12,2185,2185,0,0,0,0,10,35512
10,0,12,2185,2185,0,0,0,0,10,36373
10,0,12,2185,2185,0,0,0,0,10,32451
10,0,12,2185,2185,0,0,0,0,10,32233
10,0,12,2185,2185,0,0,0,0,10,32585
10,0,12,2185,2185,0,0,0,0,10,32216
10,0,12,2185,2185,0,0,0,0,10,32541
10,0,12,2185,2185,0,0,0,0,10,32051
10,0,12,2185,2185,0,0,0,0,10,32412
10,0,12,2185,2185,0,0,0,0,10,32324
10,0,12,2185,2185,0,0,0,0,10,32204
10,0,12,2185,2185,0,0,0,0,10,32090
10,0,12,2185,2185,0,0,0,0,10,32100
10,0,12,2185,2185,0,0,0,0,10,32333
10,0,12,2185,2185,0,0,0,0,10,32544
10,0,12,2185,2185,0,0,0,0,10,32448
10,0,12,2185,2185,0,0,0,0,10,38295
10,0,12,2185,2185,0,0,0,0,10,38434
10,0,12,2185,2185,0,0,0,0,10,36869
10,0,12,2185,2185,0,0,0,0,10,34904
10,0,12,2185,2185,0,0,0,0,10,35933
10,0,12,2185,2185,0,0,0,0,10,37123
10,0,12,2185,2185,0,0,0,0,10,35524
10,0,12,2185,2185,0,0,0,0,10,35818
10,0,12,2185,2185,0,0,0,0,10,34808
10,0,12,2185,2185,0,0,0,0,10,37906
10,0,12,2185,2185,0,0,0,0,10,35934
10,0,12,2185,2185,0,0,0,0,10,35046
10,0,12,2185,2185,0,0,0,0,10,32703
10,0,12,2185,2185,0,0,0,0,10,32397
10,0,12,2185,2185,0,0,0,0,10,32613
10,0,12,2185,2185,0,0,0,0,10,32299
10,0,12,2185,2185,0,0,0,0,10,32493
10,0,12,2185,2185,0,0,0,0,10,32329
10,0,12,2185,2185,0,0,0,0,10,32512
10,0,12,2185,2185,0,0,0,0,10,33086
10,0,12,2185,2185,0,0,0,0,10,32812
10,0,12,2185,2185,0,0,0,0,10,32476
10,0,12,2185,2185,0,0,0,0,10,32143
10,0,12,2185,2185,0,0,0,0,10,35335
10,0,12,2185,2185,0,0,0,0,10,33482
10,0,12,2185,2185,0,0,0,0,10,33805
10,0,12,2185,2185,0,0,0,0,10,33029
10,0,12,2185,2185,0,0,0,0,10,33840
10,0,12,2185,2185,0,0,0,0,10,46055
10,0,12,2185,2185,0,0,0,0,10,30915
10,0,12,2185,2185,0,0,0,0,10,30879
10,0,12,2185,2185,0,0,0,0,10,31469
10,0,12,2185,2185,0,0,0,0,10,31316
10,0,12,2185,2185,0,0,0,0,10,31252
10,0,12,2185,2185,0,0,0,0,10,30745
10,0,12,2185,2185,0,0,0,0,10,30774
10,0,12,2185,2185,0,0,0,0,10,30514
10,0,12,2185,2185,0,0,0,0,10,30427
10,0,12,2185,2185,0,0,0,0,10,30290
10,0,12,2185,2185,0,0,0,0,10,30143
10,0,12,2185,2185,0,0,0,0,10,30180
10,0,12,2185,2185,0,0,0,0,10,30105
10,0,12,2185,2185,0,0,0,0,10,30171
10,0,12,2185,2185,0,0,0,0,10,30047
10,0,12,2185,2185,0,0,0,0,10,30182
10,0,12,2185,2185,0,0,0,0,10,30230
10,0,12,2185,2185,0,0,0,0,10,29975
10,0,12,2185,2185,0,0,0,0,10,30292
10,0,12,2185,2185,0,0,0,0,10,30091
10,0,12,2185,2185,0,0,0,0,10,30293
10,0,12,2185,2185,0,0,0,0,10,30012
10,0,12,2185,2185,0,0,0,0,10,30139
10,0,12,2185,2185,0,0,0,0,10,30312
10,0,12,2185,2185,0,0,0,0,10,30392
10,0,12,2185,2185,0,0,0,0,10,30489
10,0,12,2185,2185,0,0,0,0,10,30092
10,0,12,2185,2185,0,0,0,0,10,30385
10,0,12,2185,2185,0,0,0,0,10,30045
10,0,12,2185,2185,0,0,0,0,10,30240
10,0,12,2185,2185,0,0,0,0,10,30072
10,0,12,2185,2185,0,0,0,0,10,30142
10,0,12,2185,2185,0,0,0,0,10,30300
10,0,12,2185,2185,0,0,0,0,10,30202
10,0,12,2185,2185,0,0,0,0,10,29966
10,0,12,2185,2185,0,0,0,0,10,30073
10,0,12,2185,2185,0,0,0,0,10,30174
10,0,12,2185,2185,0,0,0,0,10,30366
10,0,12,2185,2185,0,0,0,0,10,30007
10,0,12,2185,2185,0,0,0,0,10,29944
10,0,12,2185,2185,0,0,0,0,10,30053
10,0,12,2185,2185,0,0,0,0,10,29968
10,0,12,2185,2185,0,0,0,0,10,30083
10,0,12,2185,2185,0,0,0,0,10,30363
10,0,12,2185,2185,0,0,0,0,10,30209
10,0,12,2185,2185,0,0,0,0,10,30126
10,0,12,2185,2185,0,0,0,0,10,29999
10,0,12,2185,2185,0,0,0,0,10,41916
10,0,12,2185,2185,0,0,0,0,10,30609
10,0,12,2185,2185,0,0,0,0,10,30185
10,0,12,2185,2185,0,0,0,0,10,30015
2,9,12,2973,2439,5,0,0,0,7,21102
2,9,12,2973,2439,5,0,0,0,7,35789
2,9,12,2973,2439,5,0,0,0,7,23131
2,9,12,2973,2439,5,0,0,0,7,23112
2,9,12,2973,2439,5,0,0,0,7,23108
2,9,12,2973,2439,5,0,0,0,7,23058
2,9,12,2973,2439,5,0,0,0,7,34264
2,9,12,2973,2439,5,0,0,0,7,33813
2,9,12,2973,2439,5,0,0,0,7,23129
2,9,12,2973,2439,5,0,0,0,7,22947
2,9,12,2973,2439,5,0,0,0,7,23124
2,9,12,2973,2439,5,0,0,0,7,22936
2,9,12,2973,2439,5,0,0,0,7,22987
2,9,12,2973,2439,5,0,0,0,7,23310
2,9,12,2973,2439,5,0,0,0,7,23144
2,9,12,2973,2439,5,0,0,0,7,23026
2,9,12,2973,2439,5,0,0,0,7,23087
2,9,12,2973,2439,5,0,0,0,7,23105
2,9,12,2973,2439,5,0,0,0,7,23000
2,9,12,2973,2439,5,0,0,0,7,23109
2,9,12,2973,2439,5,0,0,0,7,23019
2,9,12,2973,2439,5,0,0,0,7,23310
2,9,12,2973,2439,5,0,0,0,7,23011
2,9,12,2973,2439,5,0,0,0,7,22786
2,9,12,2973,2439,5,0,0,0,7,22794
2,9,12,2973,2439,5,0,0,0,7,23386
2,9,12,2973,2439,5,0,0,0,7,22903
2,9,12,2973,2439,5,0,0,0,7,22972
2,9,12,2973,2439,5,0,0,0,7,22761
2,9,12,2973,2439,5,0,0,0,7,22785
2,9,12,2973,2439,5,0,0,0,7,22777
2,9,12,2973,2439,5,0,0,0,7,22952
2,9,12,2973,2439,5,0,0,0,7,22920
2,9,12,2973,2439,5,0,0,0,7,22986
2,9,12,2973,2439,5,0,0,0,7,22960
2,9,12,2973,2439,5,0,0,0,7,23168
2,9,12,2973,2439,5,0,0,0,7,23047
2,9,12,2973,2439,5,0,0,0,7,22972
2,9,12,2973,2439,5,0,0,0,7,23052
2,9,12,2973,2439,5,0,0,0,7,23352
2,9,12,2973,2439,5,0,0,0,7,22929
2,9,12,2973,2439,5,0,0,0,7,22945
2,9,12,2973,2439,5,0,0,0,7,23100
2,9,12,2973,2439,5,0,0,0,7,22745
2,9,12,2973,2439,5,0,0,0,7,22780
2,9,12,2973,2439,5,0,0,0,7,22683
2,9,12,2973,2439,5,0,0,0,7,22715
2,9,12,2973,2439,5,0,0,0,7,22810
2,9,12,2973,2439,5,0,0,0,7,22887
2,9,12,2973,2439,5,0,0,0,7,22817
2,9,12,2973,2439,5,0,0,0,7,23197
2,9,12,2973,2439,5,0,0,0,7,22624
2,9,12,2973,2439,5,0,0,0,7,22894
2,9,12,2973,2439,5,0,0,0,7,22708
2,9,12,2973,2439,5,0,0,0,7,24123
2,9,12,2973,2439,5,0,0,0,7,33246
2,9,12,2973,2439,5,0,0,0,7,22907
2,9,12,2973,2439,5,0,0,0,7,22938
2,9,12,2973,2439,5,0,0,0,7,22968
2,9,12,2973,2439,5,0,0,0,7,22751
2,9,12,2973,2439,5,0,0,0,7,22844
2,9,12,2973,2439,5,0,0,0,7,22622
2,9,12,2973,2439,5,0,0,0,7,23022
2,9,12,2973,2439,5,0,0,0,7,22877
2,9,12,2973,2439,5,0,0,0,7,22948
2,9,12,2973,2439,5,0,0,0,7,23021
2,9,12,2973,2439,5,0,0,0,7,22936
2,9,12,2973,2439,5,0,0,0,7,23380
2,9,12,2973,2439,5,0,0,0,7,22867
2,9,12,2973,2439,5,0,0,0,7,22848
2,9,12,2973,2439,5,0,0,0,7,23120
2,9,12,2973,2439,5,0,0,0,7,23022
2,9,12,2973,2439,5,0,0,0,7,23259
2,9,12,2973,2439,5,0,0,0,7,22802
2,9,12,2973,2439,5,0,0,0,7,22969
2,9,12,2973,2439,5,0,0,0,7,22997
2,9,12,2973,2439,5,0,0,0,7,22970
2,9,12,2973,2439,5,0,0,0,7,22845
2,9,12,2973,2439,5,0,0,0,7,22803
2,9,12,2973,2439,5,0,0,0,7,23005
2,9,12,2973,2439,5,0,0,0,7,23014
2,9,12,2973,2439,5,0,0,0,7,22884
2,9,12,2973,2439,5,0,0,0,7,22980
2,9,12,2973,2439,5,0,0,0,7,22887
2,9,12,2973,2439,5,0,0,0,7,23070
2,9,12,2973,2439,5,0,0,0,7,22860
2,9,12,2973,2439,5,0,0,0,7,22786
2,9,12,2973,2439,5,0,0,0,7,34569
2,9,12,2973,2439,5,0,0,0,7,24366
2,9,12,2973,2439,5,0,0,0,7,24599
2,9,12,2973,2439,5,0,0,0,7,24434
2,9,12,2973,2439,5,0,0,0,7,24285
2,9,12,2973,2439,5,0,0,0,7,24255
2,9,12,2973,2439,5,0,0,0,7,24459
2,9,12,2973,2439,5,0,0,0,7,24709
2,9,12,2973,2439,5,0,0,0,7,24642
2,9,12,2973,2439,5,0,0,0,7,24565
2,9,12,2973,2439,5,0,0,0,7,24282
2,9,12,2973,2439,5,0,0,0,7,24576
2,9,12,2973,2439,5,0,0,0,7,24457
6,6,12,4711,2981,11,0,0,0,11,89160
6,6,12,4711,2981,11,0,0,0,11,95131
6,6,12,4711,2981,11,0,0,0,11,94745
6,6,12,4711,2981,11,0,0,0,11,93966
6,6,12,4711,2981,11,0,0,0,11,100855
6,6,12,4711,2981,11,0,0,0,11,95041
6,6,12,4711,2981,11,0,0,0,11,105723
6,6,12,4711,2981,11,0,0,0,11,88860
6,6,12,4711,2981,11,0,0,0,11,88291
6,6,12,4711,2981,11,0,0,0,11,88368
6,6,12,4711,2981,11,0,0,0,11,87940
6,6,12,4711,2981,11,0,0,0,11,88101
6,6,12,4711,2981,11,0,0,0,11,88770
6,6,12,4711,2981,11,0,0,0,11,88430
6,6,12,4711,2981,11,0,0,0,11,88058
6,6,12,4711,2981,11,0,0,0,11,87637
6,6,12,4711,2981,11,0,0,0,11,87626
6,6,12,4711,2981,11,0,0,0,11,89025
6,6,12,4711,2981,11,0,0,0,11,87604
6,6,12,4711,2981,11,0,0,0,11,89060
6,6,12,4711,2981,11,0,0,0,11,114536
6,6,12,4711,2981,11,0,0,0,11,89102
6,6,12,4711,2981,11,0,0,0,11,87772
6,6,12,4711,2981,11,0,0,0,11,88310
6,6,12,4711,2981,11,0,0,0,11,87800
6,6,12,4711,2981,11,0,0,0,11,89011
6,6,12,4711,2981,11,0,0,0,11,88313
6,6,12,4711,2981,11,0,0,0,11,88838
6,6,12,4711,2981,11,0,0,0,11,87773
6,6,12,4711,2981,11,0,0,0,11,88823
6,6,12,4711,2981,11,0,0,0,11,88232
6,6,12,4711,2981,11,0,0,0,11,87465
6,6,12,4711,2981,11,0,0,0,11,88859
6,6,12,4711,2981,11,0,0,0,11,88003
6,6,12,4711,2981,11,0,0,0,11,88923
6,6,12,4711,2981,11,0,0,0,11,101878
6,6,12,4711,2981,11,0,0,0,11,87394
6,6,12,4711,2981,11,0,0,0,11,87677
6,6,12,4711,2981,11,0,0,0,11,102819
6,6,12,4711,2981,11,0,0,0,11,104289
6,6,12,4711,2981,11,0,0,0,11,87107
6,6,12,4711,2981,11,0,0,0,11,88192
6,6,12,4711,2981,11,0,0,0,11,87356
6,6,12,4711,2981,11,0,0,0,11,87398
6,6,12,4711,2981,11,0,0,0,11,92107
6,6,12,4711,2981,11,0,0,0,11,88325
6,6,12,4711,2981,11,0,0,0,11,88232
6,6,12,4711,2981,11,0,0,0,11,87236
6,6,12,4711,2981,11,0,0,0,11,86961
6,6,12,4711,2981,11,0,0,0,11,87602
6,6,12,4711,2981,11,0,0,0,11,99042
6,6,12,4711,2981,11,0,0,0,11,99502
6,6,12,4711,2981,11,0,0,0,11,86701
6,6,12,4711,2981,11,0,0,0,11,88362
6,6,12,4711,2981,11,0,0,0,11,87899
6,6,12,4711,2981,11,0,0,0,11,87286
6,6,12,4711,2981,11,0,0,0,11,88398
6,6,12,4711,2981,11,0,0,0,11,88147
6,6,12,4711,2981,11,0,0,0,11,86883
6,6,12,4711,2981,11,0,0,0,11,87282
6,6,12,4711,2981,11,0,0,0,11,87600
6,6,12,4711,2981,11,0,0,0,11,87509
6,6,12,4711,2981,11,0,0,0,11,87609
6,6,12,4711,2981,11,0,0,0,11,87216
6,6,12,4711,2981,11,0,0,0,11,87869
6,6,12,4711,2981,11,0,0,0,11,87786
6,6,12,4711,2981,11,0,0,0,11,87877
6,6,12,4711,2981,11,0,0,0,11,87905
6,6,12,4711,2981,11,0,0,0,11,87112
6,6,12,4711,2981,11,0,0,0,11,87312
6,6,12,4711,2981,11,0,0,0,11,88219
6,6,12,4711,2981,11,0,0,0,11,87697
6,6,12,4711,2981,11,0,0,0,11,88570
6,6,12,4711,2981,11,0,0,0,11,87218
6,6,12,4711,2981,11,0,0,0,11,95553
6,6,12,4711,2981,11,0,0,0,11,87347
6,6,12,4711,2981,11,0,0,0,11,87220
6,6,12,4711,2981,11,0,0,0,11,87026
6,6,12,4711,2981,11,0,0,0,11,86944
6,6,12,4711,2981,11,0,0,0,11,87721
6,6,12,4711,2981,11,0,0,0,11,87622
6,6,12,4711,2981,11,0,0,0,11,88887
6,6,12,4711,2981,11,0,0,0,11,88230
6,6,12,4711,2981,11,0,0,0,11,88521
6,6,12,4711,2981,11,0,0,0,11,88300
6,6,12,4711,2981,11,0,0,0,11,117761
6,6,12,4711,2981,11,0,0,0,11,87805
6,6,12,4711,2981,11,0,0,0,11,88237
6,6,12,4711,2981,11,0,0,0,11,87676
6,6,12,4711,2981,11,0,0,0,11,87165
6,6,12,4711,2981,11,0,0,0,11,87815
6,6,12,4711,2981,11,0,0,0,11,87944
6,6,12,4711,2981,11,0,0,0,11,88447
6,6,12,4711,2981,11,0,0,0,11,88190
6,6,12,4711,2981,11,0,0,0,11,88701
6,6,12,4711,2981,11,0,0,0,11,87488
6,6,12,4711,2981,11,0,0,0,11,87747
6,6,12,4711,2981,11,0,0,0,11,110565
6,6,12,4711,2981,11,0,0,0,11,86988
6,6,12,4711,2981,11,0,0,0,11,87511
9,4,12,3002,2414,5,0,0,0,11,45557
9,4,12,3002,2414,5,0,0,0,11,58202
9,4,12,3002,2414,5,0,0,0,11,46772
9,4,12,3002,2414,5,0,0,0,11,46798
9,4,12,3002,2414,5,0,0,0,11,46395
9,4,12,3002,2414,5,0,0,0,11,46161
9,4,12,3002,2414,5,0,0,0,11,46074
9,4,12,3002,2414,5,0,0,0,11,46563
9,4,12,3002,2414,5,0,0,0,11,46440
9,4,12,3002,2414,5,0,0,0,11,46383
9,4,12,3002,2414,5,0,0,0,11,46078
9,4,12,3002,2414,5,0,0,0,11,45681
9,4,12,3002,2414,5,0,0,0,11,45936
9,4,12,3002,2414,5,0,0,0,11,46138
9,4,12,3002,2414,5,0,0,0,11,46336
9,4,12,3002,2414,5,0,0,0,11,46110
9,4,12,3002,2414,5,0,0,0,11,46131
9,4,12,3002,2414,5,0,0,0,11,46256
9,4,12,3002,2414,5,0,0,0,11,45836
9,4,12,3002,2414,5,0,0,0,11,46125
9,4,12,3002,2414,5,0,0,0,11,46253
9,4,12,3002,2414,5,0,0,0,11,57846
9,4,12,3002,2414,5,0,0,0,11,56519
9,4,12,3002,2414,5,0,0,0,11,45816
9,4,12,3002,2414,5,0,0,0,11,46208
9,4,12,3002,2414,5,0,0,0,11,45709
9,4,12,3002,2414,5,0,0,0,11,45702
9,4,12,3002,2414,5,0,0,0,11,45936
9,4,12,3002,2414,5,0,0,0,11,45883
9,4,12,3002,2414,5,0,0,0,11,45976
9,4,12,3002,2414,5,0,0,0,11,45937
9,4,12,3002,2414,5,0,0,0,11,45971
9,4,12,3002,2414,5,0,0,0,11,45872
9,4,12,3002,2414,5,0,0,0,11,45766
9,4,12,3002,2414,5,0,0,0,11,45869
9,4,12,3002,2414,5,0,0,0,11,45910
9,4,12,3002,2414,5,0,0,0,11,45742
9,4,12,3002,2414,5,0,0,0,11,45567
9,4,12,3002,2414,5,0,0,0,11,45954
9,4,12,3002,2414,5,0,0,0,11,45971
9,4,12,3002,2414,5,0,0,0,11,46232
9,4,12,3002,2414,5,0,0,0,11,45850
9,4,12,3002,2414,5,0,0,0,11,45928
9,4,12,3002,2414,5,0,0,0,11,45989
9,4,12,3002,2414,5,0,0,0,11,52180
9,4,12,3002,2414,5,0,0,0,11,46229
9,4,12,3002,2414,5,0,0,0,11,46026
9,4,12,3002,2414,5,0,0,0,11,46422
9,4,12,3002,2414,5,0,0,0,11,46515
9,4,12,3002,2414,5,0,0,0,11,46013
9,4,12,3002,2414,5,0,0,0,11,49491
9,4,12,3002,2414,5,0,0,0,11,48869
9,4,12,3002,2414,5,0,0,0,11,48738
9,4,12,3002,2414,5,0,0,0,11,59518
9,4,12,3002,2414,5,0,0,0,11,46324
9,4,12,3002,2414,5,0,0,0,11,45903
9,4,12,3002,2414,5,0,0,0,11,46092
9,4,12,3002,2414,5,0,0,0,11,58550
9,4,12,3002,2414,5,0,0,0,11,57038
9,4,12,3002,2414,5,0,0,0,11,46119
9,4,12,3002,2414,5,0,0,0,11,45787
9,4,12,3002,2414,5,0,0,0,11,46360
9,4,12,3002,2414,5,0,0,0,11,45631
9,4,12,3002,2414,5,0,0,0,11,45933
9,4,12,3002,2414,5,0,0,0,11,45800
9,4,12,3002,2414,5,0,0,0,11,46036
9,4,12,3002,2414,5,0,0,0,11,46214
9,4,12,3002,2414,5,0,0,0,11,46575
9,4,12,3002,2414,5,0,0,0,11,46016
9,4,12,3002,2414,5,0,0,0,11,45916
9,4,12,3002,2414,5,0,0,0,11,46000
9,4,12,3002,2414,5,0,0,0,11,46198
9,4,12,3002,2414,5,0,0,0,11,46243
9,4,12,3002,2414,5,0,0,0,11,45975
9,4,12,3002,2414,5,0,0,0,11,45957
9,4,12,3002,2414,5,0,0,0,11,46571
9,4,12,3002,2414,5,0,0,0,11,45827
9,4,12,3002,2414,5,0,0,0,11,46881
9,4,12,3002,2414,5,0,0,0,11,57364
9,4,12,3002,2414,5,0,0,0,11,58397
9,4,12,3002,2414,5,0,0,0,11,46069
9,4,12,3002,2414,5,0,0,0,11,45901
9,4,12,3002,2414,5,0,0,0,11,45701
9,4,12,3002,2414,5,0,0,0,11,46265
9,4,12,3002,2414,5,0,0,0,11,58371
9,4,12,3002,2414,5,0,0,0,11,46147
9,4,12,3002,2414,5,0,0,0,11,46569
9,4,12,3002,2414,5,0,0,0,11,46538
9,4,12,3002,2414,5,0,0,0,11,46981
9,4,12,3002,2414,5,0,0,0,11,46603
9,4,12,3002,2414,5,0,0,0,11,46190
9,4,12,3002,2414,5,0,0,0,11,46491
9,4,12,3002,2414,5,0,0,0,11,46395
9,4,12,3002,2414,5,0,0,0,11,45969
9,4,12,3002,2414,5,0,0,0,11,45959
9,4,12,3002,2414,5,0,0,0,11,45553
9,4,12,3002,2414,5,0,0,0,11,45889
9,4,12,3002,2414,5,0,0,0,11,46093
9,4,12,3002,2414,5,0,0,0,11,45712
9,4,12,3002,2414,5,0,0,0,11,45795
10,4,12,2836,2836,0,0,0,0,13,57037
10,4,12,2836,2836,0,0,0,0,13,48508
10,4,12,2836,2836,0,0,0,0,13,49834
10,4,12,2836,2836,0,0,0,0,13,47607
10,4,12,2836,2836,0,0,0,0,13,47492
10,4,12,2836,2836,0,0,0,0,13,47426
10,4,12,2836,2836,0,0,0,0,13,47650
10,4,12,2836,2836,0,0,0,0,13,47944
10,4,12,2836,2836,0,0,0,0,13,48069
10,4,12,2836,2836,0,0,0,0,13,47414
10,4,12,2836,2836,0,0,0,0,13,59924
10,4,12,2836,2836,0,0,0,0,13,58769
10,4,12,2836,2836,0,0,0,0,13,50604
10,4,12,2836,2836,0,0,0,0,13,47612
10,4,12,2836,2836,0,0,0,0,13,47223
10,4,12,2836,2836,0,0,0,0,13,47826
10,4,12,2836,2836,0,0,0,0,13,47611
10,4,12,2836,2836,0,0,0,0,13,47852
10,4,12,2836,2836,0,0,0,0,13,47339
10,4,12,2836,2836,0,0,0,0,13,47603
10,4,12,2836,2836,0,0,0,0,13,47295
10,4,12,2836,2836,0,0,0,0,13,47445
10,4,12,2836,2836,0,0,0,0,13,47779
10,4,12,2836,2836,0,0,0,0,13,47605
10,4,12,2836,2836,0,0,0,0,13,47441
10,4,12,2836,2836,0,0,0,0,13,47561
10,4,12,2836,2836,0,0,0,0,13,47325
10,4,12,2836,2836,0,0,0,0,13,47834
10,4,12,2836,2836,0,0,0,0,13,47503
10,4,12,2836,2836,0,0,0,0,13,47657
10,4,12,2836,2836,0,0,0,0,13,47178
10,4,12,2836,2836,0,0,0,0,13,47659
10,4,12,2836,2836,0,0,0,0,13,47384
10,4,12,2836,2836,0,0,0,0,13,48113
10,4,12,2836,2836,0,0,0,0,13,47320
10,4,12,2836,2836,0,0,0,0,13,47444
10,4,12,2836,2836,0,0,0,0,13,47794
10,4,12,2836,2836,0,0,0,0,13,47235
10,4,12,2836,2836,0,0,0,0,13,47730
10,4,12,2836,2836,0,0,0,0,13,47778
10,4,12,2836,2836,0,0,0,0,13,47776
10,4,12,2836,2836,0,0,0,0,13,47280
10,4,12,2836,2836,0,0,0,0,13,47569
10,4,12,2836,2836,0,0,0,0,13,47219
10,4,12,2836,2836,0,0,0,0,13,47412
10,4,12,2836,2836,0,0,0,0,13,47338
10,4,12,2836,2836,0,0,0,0,13,60478
10,4,12,2836,2836,0,0,0,0,13,47357
10,4,12,2836,2836,0,0,0,0,13,47569
10,4,12,2836,2836,0,0,0,0,13,47992
10,4,12,2836,2836,0,0,0,0,13,48221
10,4,12,2836,2836,0,0,0,0,13,47351
10,4,12,2836,2836,0,0,0,0,13,47354
10,4,12,2836,2836,0,0,0,0,13,47072
10,4,12,2836,2836,0,0,0,0,13,47524
10,4,12,2836,2836,0,0,0,0,13,47835
10,4,12,2836,2836,0,0,0,0,13,47865
10,4,12,2836,2836,0,0,0,0,13,47792
10,4,12,2836,2836,0,0,0,0,13,47525
10,4,12,2836,2836,0,0,0,0,13,47533
10,4,12,2836,2836,0,0,0,0,13,47682
10,4,12,2836,2836,0,0,0,0,13,47435
10,4,12,2836,2836,0,0,0,0,13,47411
10,4,12,2836,2836,0,0,0,0,13,47269
10,4,12,2836,2836,0,0,0,0,13,47250
10,4,12,2836,2836,0,0,0,0,13,47876
10,4,12,2836,2836,0,0,0,0,13,47901
10,4,12,2836,2836,0,0,0,0,13,47609
10,4,12,2836,2836,0,0,0,0,13,47491
10,4,12,2836,2836,0,0,0,0,13,47419
10,4,12,2836,2836,0,0,0,0,13,47605
10,4,12,2836,2836,0,0,0,0,13,47495
10,4,12,2836,2836,0,0,0,0,13,47474
10,4,12,2836,2836,0,0,0,0,13,47679
10,4,12,2836,2836,0,0,0,0,13,47170
10,4,12,2836,2836,0,0,0,0,13,47792
10,4,12,2836,2836,0,0,0,0,13,47478
10,4,12,2836,2836,0,0,0,0,13,47526
10,4,12,2836,2836,0,0,0,0,13,47317
10,4,12,2836,2836,0,0,0,0,13,47504
10,4,12,2836,2836,0,0,0,0,13,47307
10,4,12,2836,2836,0,0,0,0,13,47475
10,4,12,2836,2836,0,0,0,0,13,51222
10,4,12,2836,2836,0,0,0,0,13,48116
10,4,12,2836,2836,0,0,0,0,13,48170
10,4,12,2836,2836,0,0,0,0,13,47377
10,4,12,2836,2836,0,0,0,0,13,47487
10,4,12,2836,2836,0,0,0,0,13,47589
10,4,12,2836,2836,0,0,0,0,13,47493
10,4,12,2836,2836,0,0,0,0,13,47558
10,4,12,2836,2836,0,0,0,0,13,47486
10,4,12,2836,2836,0,0,0,0,13,47302
10,4,12,2836,2836,0,0,0,0,13,47320
10,4,12,2836,2836,0,0,0,0,13,47306
10,4,12,2836,2836,0,0,0,0,13,47401
10,4,12,2836,2836,0,0,0,0,13,47632
10,4,12,2836,2836,0,0,0,0,13,47393
10,4,12,2836,2836,0,0,0,0,13,47985
10,4,12,2836,2836,0,0,0,0,13,47557
10,4,12,2836,2836,0,0,0,0,13,47995
10,5,12,3135,2794,2,0,0,0,12,66675
10,5,12,3135,2794,2,0,0,0,12,59063
10,5,12,3135,2794,2,0,0,0,12,59529
10,5,12,3135,2794,2,0,0,0,12,59402
10,5,12,3135,2794,2,0,0,0,12,58713
10,5,12,3135,2794,2,0,0,0,12,59424
10,5,12,3135,2794,2,0,0,0,12,58517
10,5,12,3135,2794,2,0,0,0,12,58591
10,5,12,3135,2794,2,0,0,0,12,58353
10,5,12,3135,2794,2,0,0,0,12,57855
10,5,12,3135,2794,2,0,0,0,12,58853
10,5,12,3135,2794,2,0,0,0,12,58357
10,5,12,3135,2794,2,0,0,0,12,58448
10,5,12,3135,2794,2,0,0,0,12,71351
10,5,12,3135,2794,2,0,0,0,12,62853
10,5,12,3135,2794,2,0,0,0,12,63281
10,5,12,3135,2794,2,0,0,0,12,62521
10,5,12,3135,2794,2,0,0,0,12,63277
10,5,12,3135,2794,2,0,0,0,12,62760
10,5,12,3135,2794,2,0,0,0,12,63540
10,5,12,3135,2794,2,0,0,0,12,62205
10,5,12,3135,2794,2,0,0,0,12,62420
10,5,12,3135,2794,2,0,0,0,12,62435
10,5,12,3135,2794,2,0,0,0,12,62791
10,5,12,3135,2794,2,0,0,0,12,62600
10,5,12,3135,2794,2,0,0,0,12,63088
10,5,12,3135,2794,2,0,0,0,12,63207
10,5,12,3135,2794,2,0,0,0,12,62363
10,5,12,3135,2794,2,0,0,0,12,62611
10,5,12,3135,2794,2,0,0,0,12,63201
10,5,12,3135,2794,2,0,0,0,12,65600
10,5,12,3135,2794,2,0,0,0,12,66197
10,5,12,3135,2794,2,0,0,0,12,66389
10,5,12,3135,2794,2,0,0,0,12,70055
10,5,12,3135,2794,2,0,0,0,12,69607
10,5,12,3135,2794,2,0,0,0,12,66279
10,5,12,3135,2794,2,0,0,0,12,66211
10,5,12,3135,2794,2,0,0,0,12,66865
10,5,12,3135,2794,2,0,0,0,12,63563
10,5,12,3135,2794,2,0,0,0,12,76811
10,5,12,3135,2794,2,0,0,0,12,70302
10,5,12,3135,2794,2,0,0,0,12,58956
10,5,12,3135,2794,2,0,0,0,12,58462
10,5,12,3135,2794,2,0,0,0,12,58156
10,5,12,3135,2794,2,0,0,0,12,59024
10,5,12,3135,2794,2,0,0,0,12,60424
10,5,12,3135,2794,2,0,0,0,12,59237
10,5,12,3135,2794,2,0,0,0,12,60441
10,5,12,3135,2794,2,0,0,0,12,59062
10,5,12,3135,2794,2,0,0,0,12,59507
10,5,12,3135,2794,2,0,0,0,12,58983
10,5,12,3135,2794,2,0,0,0,12,58298
10,5,12,3135,2794,2,0,0,0,12,58327
10,5,12,3135,2794,2,0,0,0,12,58891
10,5,12,3135,2794,2,0,0,0,12,58045
10,5,12,3135,2794,2,0,0,0,12,58870
10,5,12,3135,2794,2,0,0,0,12,57952
10,5,12,3135,2794,2,0,0,0,12,58210
10,5,12,3135,2794,2,0,0,0,12,58283
10,5,12,3135,2794,2,0,0,0,12,59124
10,5,12,3135,2794,2,0,0,0,12,58930
10,5,12,3135,2794,2,0,0,0,12,70630
10,5,12,3135,2794,2,0,0,0,12,58168
10,5,12,3135,2794,2,0,0,0,12,58451
10,5,12,3135,2794,2,0,0,0,12,58456
10,5,12,3135,2794,2,0,0,0,12,58549
10,5,12,3135,2794,2,0,0,0,12,58842
10,5,12,3135,2794,2,0,0,0,12,58598
10,5,12,3135,2794,2,0,0,0,12,58476
10,5,12,3135,2794,2,0,0,0,12,58452
10,5,12,3135,2794,2,0,0,0,12,59526
10,5,12,3135,2794,2,0,0,0,12,59318
10,5,12,3135,2794,2,0,0,0,12,58994
10,5,12,3135,2794,2,0,0,0,12,58822
10,5,12,3135,2794,2,0,0,0,12,58726
10,5,12,3135,2794,2,0,0,0,12,59166
10,5,12,3135,2794,2,0,0,0,12,58126
10,5,12,3135,2794,2,0,0,0,12,58590
10,5,12,3135,2794,2,0,0,0,12,58344
10,5,12,3135,2794,2,0,0,0,12,58207
10,5,12,3135,2794,2,0,0,0,12,58415
10,5,12,3135,2794,2,0,0,0,12,57997
10,5,12,3135,2794,2,0,0,0,12,58177
10,5,12,3135,2794,2,0,0,0,12,69946
10,5,12,3135,2794,2,0,0,0,12,69280
10,5,12,3135,2794,2,0,0,0,12,58468
10,5,12,3135,2794,2,0,0,0,12,58616
10,5,12,3135,2794,2,0,0,0,12,58078
10,5,12,3135,2794,2,0,0,0,12,58638
10,5,12,3135,2794,2,0,0,0,12,58944
10,5,12,3135,2794,2,0,0,0,12,58214
10,5,12,3135,2794,2,0,0,0,12,58097
10,5,12,3135,2794,2,0,0,0,12,58609
10,5,12,3135,2794,2,0,0,0,12,58314
10,5,12,3135,2794,2,0,0,0,12,58120
10,5,12,3135,2794,2,0,0,0,12,58363
10,5,12,3135,2794,2,0,0,0,12,58767
10,5,12,3135,2794,2,0,0,0,12,58534
10,5,12,3135,2794,2,0,0,0,12,58065
10,5,12,3135,2794,2,0,0,0,12,58868
6,10,12,3016,2690,2,0,0,0,11,42399
6,10,12,3016,2690,2,0,0,0,11,46212
6,10,12,3016,2690,2,0,0,0,11,45036
6,10,12,3016,2690,2,0,0,0,11,44302
6,10,12,3016,2690,2,0,0,0,11,44643
6,10,12,3016,2690,2,0,0,0,11,44277
6,10,12,3016,2690,2,0,0,0,11,43854
6,10,12,3016,2690,2,0,0,0,11,44518
6,10,12,3016,2690,2,0,0,0,11,43913
6,10,12,3016,2690,2,0,0,0,11,44426
6,10,12,3016,2690,2,0,0,0,11,43954
6,10,12,3016,2690,2,0,0,0,11,43663
6,10,12,3016,2690,2,0,0,0,11,44164
6,10,12,3016,2690,2,0,0,0,11,44102
6,10,12,3016,2690,2,0,0,0,11,44520
6,10,12,3016,2690,2,0,0,0,11,55918
6,10,12,3016,2690,2,0,0,0,11,55606
6,10,12,3016,2690,2,0,0,0,11,44166
6,10,12,3016,2690,2,0,0,0,11,44326
6,10,12,3016,2690,2,0,0,0,11,44537
6,10,12,3016,2690,2,0,0,0,11,44356
6,10,12,3016,2690,2,0,0,0,11,44484
6,10,12,3016,2690,2,0,0,0,11,44230
6,10,12,3016,2690,2,0,0,0,11,44490
6,10,12,3016,2690,2,0,0,0,11,44576
6,10,12,3016,2690,2,0,0,0,11,44104
6,10,12,3016,2690,2,0,0,0,11,44060
6,10,12,3016,2690,2,0,0,0,11,43778
6,10,12,3016,2690,2,0,0,0,11,44091
6,10,12,3016,2690,2,0,0,0,11,44265
6,10,12,3016,2690,2,0,0,0,11,44326
6,10,12,3016,2690,2,0,0,0,11,43973
6,10,12,3016,2690,2,0,0,0,11,44271
6,10,12,3016,2690,2,0,0,0,11,44458
6,10,12,3016,2690,2,0,0,0,11,44079
6,10,12,3016,2690,2,0,0,0,11,44045
6,10,12,3016,2690,2,0,0,0,11,44421
6,10,12,3016,2690,2,0,0,0,11,44096
6,10,12,3016,2690,2,0,0,0,11,44100
6,10,12,3016,2690,2,0,0,0,11,43809
6,10,12,3016,2690,2,0,0,0,11,43762
6,10,12,3016,2690,2,0,0,0,11,44177
6,10,12,3016,2690,2,0,0,0,11,43652
6,10,12,3016,2690,2,0,0,0,11,55011
6,10,12,3016,2690,2,0,0,0,11,56279
6,10,12,3016,2690,2,0,0,0,11,43987
6,10,12,3016,2690,2,0,0,0,11,44325
6,10,12,3016,2690,2,0,0,0,11,44021
6,10,12,3016,2690,2,0,0,0,11,43967
6,10,12,3016,2690,2,0,0,0,11,44278
6,10,12,3016,2690,2,0,0,0,11,43992
6,10,12,3016,2690,2,0,0,0,11,44070
6,10,12,3016,2690,2,0,0,0,11,43801
6,10,12,3016,2690,2,0,0,0,11,44254
6,10,12,3016,2690,2,0,0,0,11,43956
6,10,12,3016,2690,2,0,0,0,11,43813
6,10,12,3016,2690,2,0,0,0,11,43824
6,10,12,3016,2690,2,0,0,0,11,44130
6,10,12,3016,2690,2,0,0,0,11,43616
6,10,12,3016,2690,2,0,0,0,11,43847
6,10,12,3016,2690,2,0,0,0,11,44401
6,10,12,3016,2690,2,0,0,0,11,44449
6,10,12,3016,2690,2,0,0,0,11,44055
6,10,12,3016,2690,2,0,0,0,11,43958
6,10,12,3016,2690,2,0,0,0,11,44327
6,10,12,3016,2690,2,0,0,0,11,44074
6,10,12,3016,2690,2,0,0,0,11,55935
6,10,12,3016,2690,2,0,0,0,11,47272
6,10,12,3016,2690,2,0,0,0,11,47873
6,10,12,3016,2690,2,0,0,0,11,47893
6,10,12,3016,2690,2,0,0,0,11,47469
6,10,12,3016,2690,2,0,0,0,11,47065
6,10,12,3016,2690,2,0,0,0,11,46765
6,10,12,3016,2690,2,0,0,0,11,46955
6,10,12,3016,2690,2,0,0,0,11,47533
6,10,12,3016,2690,2,0,0,0,11,47323
6,10,12,3016,2690,2,0,0,0,11,47402
6,10,12,3016,2690,2,0,0,0,11,46892
6,10,12,3016,2690,2,0,0,0,11,46830
6,10,12,3016,2690,2,0,0,0,11,46891
6,10,12,3016,2690,2,0,0,0,11,47651
6,10,12,3016,2690,2,0,0,0,11,46956
6,10,12,3016,2690,2,0,0,0,11,47057
6,10,12,3016,2690,2,0,0,0,11,47111
6,10,12,3016,2690,2,0,0,0,11,47102
6,10,12,3016,2690,2,0,0,0,11,48688
6,10,12,3016,2690,2,0,0,0,11,59572
6,10,12,3016,2690,2,0,0,0,11,44229
6,10,12,3016,2690,2,0,0,0,11,44055
6,10,12,3016,2690,2,0,0,0,11,44393
6,10,12,3016,2690,2,0,0,0,11,44426
6,10,12,3016,2690,2,0,0,0,11,44570
6,10,12,3016,2690,2,0,0,0,11,45493
6,10,12,3016,2690,2,0,0,0,11,45319
6,10,12,3016,2690,2,0,0,0,11,44700
6,10,12,3016,2690,2,0,0,0,11,44281
6,10,12,3016,2690,2,0,0,0,11,43934
6,10,12,3016,2690,2,0,0,0,11,44378
6,10,12,3016,2690,2,0,0,0,11,44535
6,10,12,3016,2690,2,0,0,0,11,44298
1,16,12,717,594,1,0,0,0,4,5725
1,16,12,717,594,1,0,0,0,4,6565
1,16,12,717,594,1,0,0,0,4,6567
1,16,12,717,594,1,0,0,0,4,6932
1,16,12,717,594,1,0,0,0,4,6565
1,16,12,717,594,1,0,0,0,4,6247
1,16,12,717,594,1,0,0,0,4,6079
1,16,12,717,594,1,0,0,0,4,6080
1,16,12,717,594,1,0,0,0,4,6091
1,16,12,717,594,1,0,0,0,4,6408
1,16,12,717,594,1,0,0,0,4,6222
1,16,12,717,594,1,0,0,0,4,6114
1,16,12,717,594,1,0,0,0,4,6297
1,16,12,717,594,1,0,0,0,4,6042
1,16,12,717,594,1,0,0,0,4,6036
1,16,12,717,594,1,0,0,0,4,6324
1,16,12,717,594,1,0,0,0,4,5985
1,16,12,717,594,1,0,0,0,4,6000
1,16,12,717,594,1,0,0,0,4,6087
1,16,12,717,594,1,0,0,0,4,6110
1,16,12,717,594,1,0,0,0,4,5982
1,16,12,717,594,1,0,0,0,4,6136
1,16,12,717,594,1,0,0,0,4,6110
1,16,12,717,594,1,0,0,0,4,5936
1,16,12,717,594,1,0,0,0,4,6773
1,16,12,717,594,1,0,0,0,4,6138
1,16,12,717,594,1,0,0,0,4,6131
1,16,12,717,594,1,0,0,0,4,6086
1,16,12,717,594,1,0,0,0,4,6062
1,16,12,717,594,1,0,0,0,4,6188
1,16,12,717,594,1,0,0,0,4,6266
1,16,12,717,594,1,0,0,0,4,6314
1,16,12,717,594,1,0,0,0,4,6018
1,16,12,717,594,1,0,0,0,4,6098
1,16,12,717,594,1,0,0,0,4,6211
1,16,12,717,594,1,0,0,0,4,6455
1,16,12,717,594,1,0,0,0,4,6016
1,16,12,717,594,1,0,0,0,4,6075
1,16,12,717,594,1,0,0,0,4,6173
1,16,12,717,594,1,0,0,0,4,6056
1,16,12,717,594,1,0,0,0,4,6062
1,16,12,717,594,1,0,0,0,4,6009
1,16,12,717,594,1,0,0,0,4,6143
1,16,12,717,594,1,0,0,0,4,6078
1,16,12,717,594,1,0,0,0,4,5992
1,16,12,717,594,1,0,0,0,4,6038
1,16,12,717,594,1,0,0,0,4,6098
1,16,12,717,594,1,0,0,0,4,6079
1,16,12,717,594,1,0,0,0,4,6095
1,16,12,717,594,1,0,0,0,4,6015
1,16,12,717,594,1,0,0,0,4,6223
1,16,12,717,594,1,0,0,0,4,19423
1,16,12,717,594,1,0,0,0,4,6551
1,16,12,717,594,1,0,0,0,4,6511
1,16,12,717,594,1,0,0,0,4,17970
1,16,12,717,594,1,0,0,0,4,6123
1,16,12,717,594,1,0,0,0,4,6116
1,16,12,717,594,1,0,0,0,4,6197
1,16,12,717,594,1,0,0,0,4,6065
1,16,12,717,594,1,0,0,0,4,6053
1,16,12,717,594,1,0,0,0,4,6085
1,16,12,717,594,1,0,0,0,4,6187
1,16,12,717,594,1,0,0,0,4,6187
1,16,12,717,594,1,0,0,0,4,6072
1,16,12,717,594,1,0,0,0,4,5910
1,16,12,717,594,1,0,0,0,4,6041
1,16,12,717,594,1,0,0,0,4,6289
1,16,12,717,594,1,0,0,0,4,5963
1,16,12,717,594,1,0,0,0,4,6202
1,16,12,717,594,1,0,0,0,4,6055
1,16,12,717,594,1,0,0,0,4,6181
1,16,12,717,594,1,0,0,0,4,5966
1,16,12,717,594,1,0,0,0,4,6076
1,16,12,717,594,1,0,0,0,4,6005
1,16,12,717,594,1,0,0,0,4,6139
1,16,12,717,594,1,0,0,0,4,6728
1,16,12,717,594,1,0,0,0,4,5950
1,16,12,717,594,1,0,0,0,4,6164
1,16,12,717,594,1,0,0,0,4,6120
1,16,12,717,594,1,0,0,0,4,6172
1,16,12,717,594,1,0,0,0,4,6193
1,16,12,717,594,1,0,0,0,4,6162
1,16,12,717,594,1,0,0,0,4,6182
1,16,12,717,594,1,0,0,0,4,6005
1,16,12,717,594,1,0,0,0,4,5962
1,16,12,717,594,1,0,0,0,4,6060
1,16,12,717,594,1,0,0,0,4,5977
1,16,12,717,594,1,0,0,0,4,6039
1,16,12,717,594,1,0,0,0,4,5986
1,16,12,717,594,1,0,0,0,4,5971
1,16,12,717,594,1,0,0,0,4,6167
1,16,12,717,594,1,0,0,0,4,6172
1,16,12,717,594,1,0,0,0,4,6166
1,16,12,717,594,1,0,0,0,4,6170
1,16,12,717,594,1,0,0,0,4,6093
1,16,12,717,594,1,0,0,0,4,6038
1,16,12,717,594,1,0,0,0,4,5988
1,16,12,717,594,1,0,0,0,4,5930
1,16,12,717,594,1,0,0,0,4,6252
1,16,12,717,594,1,0,0,0,4,6064