cantGimnasios,cantPokeparadas,tamMochila,distanciaOriginal,distanciaNueva,cantPermutacionesParaMejorar,cantPermutacionesParaMantener,cantReemplazosParaMejorar,cantReemplazosParaMantener,tamCamino,tiempo
1,0,12,0,0,0,0,0,0,1,931
1,0,12,0,0,0,0,0,0,1,593
1,0,12,0,0,0,0,0,0,1,519
1,0,12,0,0,0,0,0,0,1,580
1,0,12,0,0,0,0,0,0,1,511
1,0,12,0,0,0,0,0,0,1,466
1,0,12,0,0,0,0,0,0,1,541
1,0,12,0,0,0,0,0,0,1,488
1,0,12,0,0,0,0,0,0,1,435
1,0,12,0,0,0,0,0,0,1,453
1,0,12,0,0,0,0,0,0,1,479
1,0,12,0,0,0,0,0,0,1,620
1,0,12,0,0,0,0,0,0,1,469
1,0,12,0,0,0,0,0,0,1,487
1,0,12,0,0,0,0,0,0,1,492
1,0,12,0,0,0,0,0,0,1,612
1,0,12,0,0,0,0,0,0,1,500
1,0,12,0,0,0,0,0,0,1,450
1,0,12,0,0,0,0,0,0,1,447
1,0,12,0,0,0,0,0,0,1,455
1,0,12,0,0,0,0,0,0,1,430
1,0,12,0,0,0,0,0,0,1,453
1,0,12,0,0,0,0,0,0,1,538
1,0,12,0,0,0,0,0,0,1,443
1,0,12,0,0,0,0,0,0,1,430
1,0,12,0,0,0,0,0,0,1,420
1,0,12,0,0,0,0,0,0,1,555
1,0,12,0,0,0,0,0,0,1,509
1,0,12,0,0,0,0,0,0,1,431
1,0,12,0,0,0,0,0,0,1,435
1,0,12,0,0,0,0,0,0,1,469
1,0,12,0,0,0,0,0,0,1,484
1,0,12,0,0,0,0,0,0,1,436
1,0,12,0,0,0,0,0,0,1,466
1,0,12,0,0,0,0,0,0,1,450
1,0,12,0,0,0,0,0,0,1,541
1,0,12,0,0,0,0,0,0,1,603
1,0,12,0,0,0,0,0,0,1,473
1,0,12,0,0,0,0,0,0,1,421
1,0,12,0,0,0,0,0,0,1,510
1,0,12,0,0,0,0,0,0,1,490
1,0,12,0,0,0,0,0,0,1,478
1,0,12,0,0,0,0,0,0,1,478
1,0,12,0,0,0,0,0,0,1,433
1,0,12,0,0,0,0,0,0,1,435
1,0,12,0,0,0,0,0,0,1,461
1,0,12,0,0,0,0,0,0,1,464
1,0,12,0,0,0,0,0,0,1,435
1,0,12,0,0,0,0,0,0,1,514
1,0,12,0,0,0,0,0,0,1,497
1,0,12,0,0,0,0,0,0,1,740
1,0,12,0,0,0,0,0,0,1,497
1,0,12,0,0,0,0,0,0,1,547
1,0,12,0,0,0,0,0,0,1,464
1,0,12,0,0,0,0,0,0,1,456
1,0,12,0,0,0,0,0,0,1,455
1,0,12,0,0,0,0,0,0,1,498
1,0,12,0,0,0,0,0,0,1,459
1,0,12,0,0,0,0,0,0,1,584
1,0,12,0,0,0,0,0,0,1,625
1,0,12,0,0,0,0,0,0,1,510
1,0,12,0,0,0,0,0,0,1,514
1,0,12,0,0,0,0,0,0,1,513
1,0,12,0,0,0,0,0,0,1,490
1,0,12,0,0,0,0,0,0,1,486
1,0,12,0,0,0,0,0,0,1,491
1,0,12,0,0,0,0,0,0,1,479
1,0,12,0,0,0,0,0,0,1,478
1,0,12,0,0,0,0,0,0,1,486
1,0,12,0,0,0,0,0,0,1,479
1,0,12,0,0,0,0,0,0,1,586
1,0,12,0,0,0,0,0,0,1,492
1,0,12,0,0,0,0,0,0,1,523
1,0,12,0,0,0,0,0,0,1,497
1,0,12,0,0,0,0,0,0,1,483
1,0,12,0,0,0,0,0,0,1,497
1,0,12,0,0,0,0,0,0,1,459
1,0,12,0,0,0,0,0,0,1,559
1,0,12,0,0,0,0,0,0,1,487
1,0,12,0,0,0,0,0,0,1,531
1,0,12,0,0,0,0,0,0,1,564
1,0,12,0,0,0,0,0,0,1,465
1,0,12,0,0,0,0,0,0,1,493
1,0,12,0,0,0,0,0,0,1,496
1,0,12,0,0,0,0,0,0,1,478
1,0,12,0,0,0,0,0,0,1,461
1,0,12,0,0,0,0,0,0,1,486
1,0,12,0,0,0,0,0,0,1,443
1,0,12,0,0,0,0,0,0,1,447
1,0,12,0,0,0,0,0,0,1,675
1,0,12,0,0,0,0,0,0,1,605
1,0,12,0,0,0,0,0,0,1,444
1,0,12,0,0,0,0,0,0,1,440
1,0,12,0,0,0,0,0,0,1,491
1,0,12,0,0,0,0,0,0,1,520
1,0,12,0,0,0,0,0,0,1,521
1,0,12,0,0,0,0,0,0,1,491
1,0,12,0,0,0,0,0,0,1,513
1,0,12,0,0,0,0,0,0,1,505
1,0,12,0,0,0,0,0,0,1,534
2,0,12,679,679,0,0,0,0,2,681
2,0,12,679,679,0,0,0,0,2,603
2,0,12,679,679,0,0,0,0,2,579
2,0,12,679,679,0,0,0,0,2,550
2,0,12,679,679,0,0,0,0,2,595
2,0,12,679,679,0,0,0,0,2,521
2,0,12,679,679,0,0,0,0,2,524
2,0,12,679,679,0,0,0,0,2,502
2,0,12,679,679,0,0,0,0,2,479
2,0,12,679,679,0,0,0,0,2,521
2,0,12,679,679,0,0,0,0,2,623
2,0,12,679,679,0,0,0,0,2,502
2,0,12,679,679,0,0,0,0,2,490
2,0,12,679,679,0,0,0,0,2,513
2,0,12,679,679,0,0,0,0,2,494
2,0,12,679,679,0,0,0,0,2,490
2,0,12,679,679,0,0,0,0,2,504
2,0,12,679,679,0,0,0,0,2,548
2,0,12,679,679,0,0,0,0,2,605
2,0,12,679,679,0,0,0,0,2,601
2,0,12,679,679,0,0,0,0,2,478
2,0,12,679,679,0,0,0,0,2,555
2,0,12,679,679,0,0,0,0,2,526
2,0,12,679,679,0,0,0,0,2,500
2,0,12,679,679,0,0,0,0,2,593
2,0,12,679,679,0,0,0,0,2,576
2,0,12,679,679,0,0,0,0,2,574
2,0,12,679,679,0,0,0,0,2,504
2,0,12,679,679,0,0,0,0,2,507
2,0,12,679,679,0,0,0,0,2,493
2,0,12,679,679,0,0,0,0,2,553
2,0,12,679,679,0,0,0,0,2,531
2,0,12,679,679,0,0,0,0,2,480
2,0,12,679,679,0,0,0,0,2,494
2,0,12,679,679,0,0,0,0,2,521
2,0,12,679,679,0,0,0,0,2,573
2,0,12,679,679,0,0,0,0,2,496
2,0,12,679,679,0,0,0,0,2,498
2,0,12,679,679,0,0,0,0,2,495
2,0,12,679,679,0,0,0,0,2,522
2,0,12,679,679,0,0,0,0,2,522
2,0,12,679,679,0,0,0,0,2,582
2,0,12,679,679,0,0,0,0,2,533
2,0,12,679,679,0,0,0,0,2,536
2,0,12,679,679,0,0,0,0,2,534
2,0,12,679,679,0,0,0,0,2,612
2,0,12,679,679,0,0,0,0,2,536
2,0,12,679,679,0,0,0,0,2,559
2,0,12,679,679,0,0,0,0,2,519
2,0,12,679,679,0,0,0,0,2,539
2,0,12,679,679,0,0,0,0,2,512
2,0,12,679,679,0,0,0,0,2,555
2,0,12,679,679,0,0,0,0,2,508
2,0,12,679,679,0,0,0,0,2,524
2,0,12,679,679,0,0,0,0,2,528
2,0,12,679,679,0,0,0,0,2,584
2,0,12,679,679,0,0,0,0,2,486
2,0,12,679,679,0,0,0,0,2,695
2,0,12,679,679,0,0,0,0,2,494
2,0,12,679,679,0,0,0,0,2,510
2,0,12,679,679,0,0,0,0,2,552
2,0,12,679,679,0,0,0,0,2,507
2,0,12,679,679,0,0,0,0,2,609
2,0,12,679,679,0,0,0,0,2,486
2,0,12,679,679,0,0,0,0,2,509
2,0,12,679,679,0,0,0,0,2,497
2,0,12,679,679,0,0,0,0,2,607
2,0,12,679,679,0,0,0,0,2,566
2,0,12,679,679,0,0,0,0,2,527
2,0,12,679,679,0,0,0,0,2,496
2,0,12,679,679,0,0,0,0,2,537
2,0,12,679,679,0,0,0,0,2,561
2,0,12,679,679,0,0,0,0,2,520
2,0,12,679,679,0,0,0,0,2,577
2,0,12,679,679,0,0,0,0,2,501
2,0,12,679,679,0,0,0,0,2,536
2,0,12,679,679,0,0,0,0,2,530
2,0,12,679,679,0,0,0,0,2,517
2,0,12,679,679,0,0,0,0,2,579
2,0,12,679,679,0,0,0,0,2,557
2,0,12,679,679,0,0,0,0,2,514
2,0,12,679,679,0,0,0,0,2,691
2,0,12,679,679,0,0,0,0,2,487
2,0,12,679,679,0,0,0,0,2,515
2,0,12,679,679,0,0,0,0,2,512
2,0,12,679,679,0,0,0,0,2,523
2,0,12,679,679,0,0,0,0,2,503
2,0,12,679,679,0,0,0,0,2,500
2,0,12,679,679,0,0,0,0,2,484
2,0,12,679,679,0,0,0,0,2,641
2,0,12,679,679,0,0,0,0,2,522
2,0,12,679,679,0,0,0,0,2,499
2,0,12,679,679,0,0,0,0,2,481
2,0,12,679,679,0,0,0,0,2,552
2,0,12,679,679,0,0,0,0,2,674
2,0,12,679,679,0,0,0,0,2,491
2,0,12,679,679,0,0,0,0,2,520
2,0,12,679,679,0,0,0,0,2,635
2,0,12,679,679,0,0,0,0,2,512
2,0,12,679,679,0,0,0,0,2,547
3,0,12,719,719,0,0,0,0,3,720
3,0,12,719,719,0,0,0,0,3,685
3,0,12,719,719,0,0,0,0,3,568
3,0,12,719,719,0,0,0,0,3,561
3,0,12,719,719,0,0,0,0,3,585
3,0,12,719,719,0,0,0,0,3,550
3,0,12,719,719,0,0,0,0,3,590
3,0,12,719,719,0,0,0,0,3,544
3,0,12,719,719,0,0,0,0,3,604
3,0,12,719,719,0,0,0,0,3,575
3,0,12,719,719,0,0,0,0,3,608
3,0,12,719,719,0,0,0,0,3,545
3,0,12,719,719,0,0,0,0,3,565
3,0,12,719,719,0,0,0,0,3,581
3,0,12,719,719,0,0,0,0,3,549
3,0,12,719,719,0,0,0,0,3,605
3,0,12,719,719,0,0,0,0,3,557
3,0,12,719,719,0,0,0,0,3,557
3,0,12,719,719,0,0,0,0,3,535
3,0,12,719,719,0,0,0,0,3,527
3,0,12,719,719,0,0,0,0,3,633
3,0,12,719,719,0,0,0,0,3,552
3,0,12,719,719,0,0,0,0,3,548
3,0,12,719,719,0,0,0,0,3,585
3,0,12,719,719,0,0,0,0,3,645
3,0,12,719,719,0,0,0,0,3,557
3,0,12,719,719,0,0,0,0,3,598
3,0,12,719,719,0,0,0,0,3,606
3,0,12,719,719,0,0,0,0,3,592
3,0,12,719,719,0,0,0,0,3,552
3,0,12,719,719,0,0,0,0,3,562
3,0,12,719,719,0,0,0,0,3,563
3,0,12,719,719,0,0,0,0,3,721
3,0,12,719,719,0,0,0,0,3,583
3,0,12,719,719,0,0,0,0,3,531
3,0,12,719,719,0,0,0,0,3,537
3,0,12,719,719,0,0,0,0,3,713
3,0,12,719,719,0,0,0,0,3,553
3,0,12,719,719,0,0,0,0,3,533
3,0,12,719,719,0,0,0,0,3,541
3,0,12,719,719,0,0,0,0,3,562
3,0,12,719,719,0,0,0,0,3,562
3,0,12,719,719,0,0,0,0,3,549
3,0,12,719,719,0,0,0,0,3,776
3,0,12,719,719,0,0,0,0,3,544
3,0,12,719,719,0,0,0,0,3,572
3,0,12,719,719,0,0,0,0,3,557
3,0,12,719,719,0,0,0,0,3,540
3,0,12,719,719,0,0,0,0,3,577
3,0,12,719,719,0,0,0,0,3,549
3,0,12,719,719,0,0,0,0,3,558
3,0,12,719,719,0,0,0,0,3,576
3,0,12,719,719,0,0,0,0,3,599
3,0,12,719,719,0,0,0,0,3,566
3,0,12,719,719,0,0,0,0,3,567
3,0,12,719,719,0,0,0,0,3,554
3,0,12,719,719,0,0,0,0,3,557
3,0,12,719,719,0,0,0,0,3,564
3,0,12,719,719,0,0,0,0,3,609
3,0,12,719,719,0,0,0,0,3,588
3,0,12,719,719,0,0,0,0,3,529
3,0,12,719,719,0,0,0,0,3,564
3,0,12,719,719,0,0,0,0,3,570
3,0,12,719,719,0,0,0,0,3,562
3,0,12,719,719,0,0,0,0,3,547
3,0,12,719,719,0,0,0,0,3,547
3,0,12,719,719,0,0,0,0,3,588
3,0,12,719,719,0,0,0,0,3,528
3,0,12,719,719,0,0,0,0,3,534
3,0,12,719,719,0,0,0,0,3,587
3,0,12,719,719,0,0,0,0,3,543
3,0,12,719,719,0,0,0,0,3,581
3,0,12,719,719,0,0,0,0,3,541
3,0,12,719,719,0,0,0,0,3,570
3,0,12,719,719,0,0,0,0,3,581
3,0,12,719,719,0,0,0,0,3,571
3,0,12,719,719,0,0,0,0,3,559
3,0,12,719,719,0,0,0,0,3,546
3,0,12,719,719,0,0,0,0,3,607
3,0,12,719,719,0,0,0,0,3,570
3,0,12,719,719,0,0,0,0,3,546
3,0,12,719,719,0,0,0,0,3,606
3,0,12,719,719,0,0,0,0,3,540
3,0,12,719,719,0,0,0,0,3,628
3,0,12,719,719,0,0,0,0,3,560
3,0,12,719,719,0,0,0,0,3,569
3,0,12,719,719,0,0,0,0,3,542
3,0,12,719,719,0,0,0,0,3,699
3,0,12,719,719,0,0,0,0,3,548
3,0,12,719,719,0,0,0,0,3,553
3,0,12,719,719,0,0,0,0,3,677
3,0,12,719,719,0,0,0,0,3,538
3,0,12,719,719,0,0,0,0,3,555
3,0,12,719,719,0,0,0,0,3,547
3,0,12,719,719,0,0,0,0,3,591
3,0,12,719,719,0,0,0,0,3,576
3,0,12,719,719,0,0,0,0,3,564
3,0,12,719,719,0,0,0,0,3,552
3,0,12,719,719,0,0,0,0,3,527
3,0,12,719,719,0,0,0,0,3,611
3,1,12,1393,1393,0,0,0,0,4,1590
3,1,12,1393,1393,0,0,0,0,4,1497
3,1,12,1393,1393,0,0,0,0,4,1444
3,1,12,1393,1393,0,0,0,0,4,1605
3,1,12,1393,1393,0,0,0,0,4,1238
3,1,12,1393,1393,0,0,0,0,4,1320
3,1,12,1393,1393,0,0,0,0,4,1356
3,1,12,1393,1393,0,0,0,0,4,1318
3,1,12,1393,1393,0,0,0,0,4,1244
3,1,12,1393,1393,0,0,0,0,4,1471
3,1,12,1393,1393,0,0,0,0,4,1244
3,1,12,1393,1393,0,0,0,0,4,1280
3,1,12,1393,1393,0,0,0,0,4,1231
3,1,12,1393,1393,0,0,0,0,4,1302
3,1,12,1393,1393,0,0,0,0,4,1379
3,1,12,1393,1393,0,0,0,0,4,1374
3,1,12,1393,1393,0,0,0,0,4,1264
3,1,12,1393,1393,0,0,0,0,4,1469
3,1,12,1393,1393,0,0,0,0,4,1296
3,1,12,1393,1393,0,0,0,0,4,1298
3,1,12,1393,1393,0,0,0,0,4,1286
3,1,12,1393,1393,0,0,0,0,4,1264
3,1,12,1393,1393,0,0,0,0,4,1260
3,1,12,1393,1393,0,0,0,0,4,1469
3,1,12,1393,1393,0,0,0,0,4,1252
3,1,12,1393,1393,0,0,0,0,4,1297
3,1,12,1393,1393,0,0,0,0,4,1434
3,1,12,1393,1393,0,0,0,0,4,1298
3,1,12,1393,1393,0,0,0,0,4,1247
3,1,12,1393,1393,0,0,0,0,4,1255
3,1,12,1393,1393,0,0,0,0,4,1225
3,1,12,1393,1393,0,0,0,0,4,1251
3,1,12,1393,1393,0,0,0,0,4,1448
3,1,12,1393,1393,0,0,0,0,4,1296
3,1,12,1393,1393,0,0,0,0,4,1235
3,1,12,1393,1393,0,0,0,0,4,1210
3,1,12,1393,1393,0,0,0,0,4,1456
3,1,12,1393,1393,0,0,0,0,4,1339
3,1,12,1393,1393,0,0,0,0,4,1240
3,1,12,1393,1393,0,0,0,0,4,1221
3,1,12,1393,1393,0,0,0,0,4,1229
3,1,12,1393,1393,0,0,0,0,4,1304
3,1,12,1393,1393,0,0,0,0,4,1268
3,1,12,1393,1393,0,0,0,0,4,1246
3,1,12,1393,1393,0,0,0,0,4,1251
3,1,12,1393,1393,0,0,0,0,4,1199
3,1,12,1393,1393,0,0,0,0,4,1280
3,1,12,1393,1393,0,0,0,0,4,1465
3,1,12,1393,1393,0,0,0,0,4,1262
3,1,12,1393,1393,0,0,0,0,4,1219
3,1,12,1393,1393,0,0,0,0,4,1243
3,1,12,1393,1393,0,0,0,0,4,1373
3,1,12,1393,1393,0,0,0,0,4,1244
3,1,12,1393,1393,0,0,0,0,4,1238
3,1,12,1393,1393,0,0,0,0,4,1241
3,1,12,1393,1393,0,0,0,0,4,1244
3,1,12,1393,1393,0,0,0,0,4,1268
3,1,12,1393,1393,0,0,0,0,4,1239
3,1,12,1393,1393,0,0,0,0,4,1310
3,1,12,1393,1393,0,0,0,0,4,1515
3,1,12,1393,1393,0,0,0,0,4,1244
3,1,12,1393,1393,0,0,0,0,4,1212
3,1,12,1393,1393,0,0,0,0,4,1268
3,1,12,1393,1393,0,0,0,0,4,1313
3,1,12,1393,1393,0,0,0,0,4,1275
3,1,12,1393,1393,0,0,0,0,4,1272
3,1,12,1393,1393,0,0,0,0,4,1198
3,1,12,1393,1393,0,0,0,0,4,1272
3,1,12,1393,1393,0,0,0,0,4,1239
3,1,12,1393,1393,0,0,0,0,4,1264
3,1,12,1393,1393,0,0,0,0,4,1233
3,1,12,1393,1393,0,0,0,0,4,1241
3,1,12,1393,1393,0,0,0,0,4,1420
3,1,12,1393,1393,0,0,0,0,4,1301
3,1,12,1393,1393,0,0,0,0,4,1213
3,1,12,1393,1393,0,0,0,0,4,1395
3,1,12,1393,1393,0,0,0,0,4,1273
3,1,12,1393,1393,0,0,0,0,4,1198
3,1,12,1393,1393,0,0,0,0,4,1392
3,1,12,1393,1393,0,0,0,0,4,1273
3,1,12,1393,1393,0,0,0,0,4,1317
3,1,12,1393,1393,0,0,0,0,4,1234
3,1,12,1393,1393,0,0,0,0,4,1273
3,1,12,1393,1393,0,0,0,0,4,1436
3,1,12,1393,1393,0,0,0,0,4,1303
3,1,12,1393,1393,0,0,0,0,4,1202
3,1,12,1393,1393,0,0,0,0,4,1225
3,1,12,1393,1393,0,0,0,0,4,1257
3,1,12,1393,1393,0,0,0,0,4,1186
3,1,12,1393,1393,0,0,0,0,4,1246
3,1,12,1393,1393,0,0,0,0,4,1269
3,1,12,1393,1393,0,0,0,0,4,1428
3,1,12,1393,1393,0,0,0,0,4,1218
3,1,12,1393,1393,0,0,0,0,4,1272
3,1,12,1393,1393,0,0,0,0,4,1325
3,1,12,1393,1393,0,0,0,0,4,1303
3,1,12,1393,1393,0,0,0,0,4,1302
3,1,12,1393,1393,0,0,0,0,4,1250
3,1,12,1393,1393,0,0,0,0,4,1299
3,1,12,1393,1393,0,0,0,0,4,1216
5,0,12,1539,1539,0,0,0,0,5,825
5,0,12,1539,1539,0,0,0,0,5,796
5,0,12,1539,1539,0,0,0,0,5,652
5,0,12,1539,1539,0,0,0,0,5,669
5,0,12,1539,1539,0,0,0,0,5,609
5,0,12,1539,1539,0,0,0,0,5,692
5,0,12,1539,1539,0,0,0,0,5,660
5,0,12,1539,1539,0,0,0,0,5,686
5,0,12,1539,1539,0,0,0,0,5,627
5,0,12,1539,1539,0,0,0,0,5,665
5,0,12,1539,1539,0,0,0,0,5,640
5,0,12,1539,1539,0,0,0,0,5,681
5,0,12,1539,1539,0,0,0,0,5,683
5,0,12,1539,1539,0,0,0,0,5,684
5,0,12,1539,1539,0,0,0,0,5,728
5,0,12,1539,1539,0,0,0,0,5,719
5,0,12,1539,1539,0,0,0,0,5,752
5,0,12,1539,1539,0,0,0,0,5,678
5,0,12,1539,1539,0,0,0,0,5,694
5,0,12,1539,1539,0,0,0,0,5,788
5,0,12,1539,1539,0,0,0,0,5,732
5,0,12,1539,1539,0,0,0,0,5,801
5,0,12,1539,1539,0,0,0,0,5,637
5,0,12,1539,1539,0,0,0,0,5,714
5,0,12,1539,1539,0,0,0,0,5,693
5,0,12,1539,1539,0,0,0,0,5,698
5,0,12,1539,1539,0,0,0,0,5,720
5,0,12,1539,1539,0,0,0,0,5,804
5,0,12,1539,1539,0,0,0,0,5,654
5,0,12,1539,1539,0,0,0,0,5,777
5,0,12,1539,1539,0,0,0,0,5,675
5,0,12,1539,1539,0,0,0,0,5,676
5,0,12,1539,1539,0,0,0,0,5,680
5,0,12,1539,1539,0,0,0,0,5,776
5,0,12,1539,1539,0,0,0,0,5,665
5,0,12,1539,1539,0,0,0,0,5,694
5,0,12,1539,1539,0,0,0,0,5,641
5,0,12,1539,1539,0,0,0,0,5,662
5,0,12,1539,1539,0,0,0,0,5,652
5,0,12,1539,1539,0,0,0,0,5,729
5,0,12,1539,1539,0,0,0,0,5,672
5,0,12,1539,1539,0,0,0,0,5,683
5,0,12,1539,1539,0,0,0,0,5,643
5,0,12,1539,1539,0,0,0,0,5,706
5,0,12,1539,1539,0,0,0,0,5,834
5,0,12,1539,1539,0,0,0,0,5,633
5,0,12,1539,1539,0,0,0,0,5,643
5,0,12,1539,1539,0,0,0,0,5,665
5,0,12,1539,1539,0,0,0,0,5,667
5,0,12,1539,1539,0,0,0,0,5,647
5,0,12,1539,1539,0,0,0,0,5,660
5,0,12,1539,1539,0,0,0,0,5,670
5,0,12,1539,1539,0,0,0,0,5,652
5,0,12,1539,1539,0,0,0,0,5,652
5,0,12,1539,1539,0,0,0,0,5,664
5,0,12,1539,1539,0,0,0,0,5,660
5,0,12,1539,1539,0,0,0,0,5,768
5,0,12,1539,1539,0,0,0,0,5,618
5,0,12,1539,1539,0,0,0,0,5,649
5,0,12,1539,1539,0,0,0,0,5,671
5,0,12,1539,1539,0,0,0,0,5,638
5,0,12,1539,1539,0,0,0,0,5,652
5,0,12,1539,1539,0,0,0,0,5,644
5,0,12,1539,1539,0,0,0,0,5,656
5,0,12,1539,1539,0,0,0,0,5,671
5,0,12,1539,1539,0,0,0,0,5,653
5,0,12,1539,1539,0,0,0,0,5,921
5,0,12,1539,1539,0,0,0,0,5,674
5,0,12,1539,1539,0,0,0,0,5,623
5,0,12,1539,1539,0,0,0,0,5,633
5,0,12,1539,1539,0,0,0,0,5,649
5,0,12,1539,1539,0,0,0,0,5,632
5,0,12,1539,1539,0,0,0,0,5,656
5,0,12,1539,1539,0,0,0,0,5,605
5,0,12,1539,1539,0,0,0,0,5,637
5,0,12,1539,1539,0,0,0,0,5,642
5,0,12,1539,1539,0,0,0,0,5,672
5,0,12,1539,1539,0,0,0,0,5,656
5,0,12,1539,1539,0,0,0,0,5,867
5,0,12,1539,1539,0,0,0,0,5,650
5,0,12,1539,1539,0,0,0,0,5,695
5,0,12,1539,1539,0,0,0,0,5,646
5,0,12,1539,1539,0,0,0,0,5,631
5,0,12,1539,1539,0,0,0,0,5,642
5,0,12,1539,1539,0,0,0,0,5,672
5,0,12,1539,1539,0,0,0,0,5,644
5,0,12,1539,1539,0,0,0,0,5,654
5,0,12,1539,1539,0,0,0,0,5,658
5,0,12,1539,1539,0,0,0,0,5,733
5,0,12,1539,1539,0,0,0,0,5,588
5,0,12,1539,1539,0,0,0,0,5,694
5,0,12,1539,1539,0,0,0,0,5,671
5,0,12,1539,1539,0,0,0,0,5,872
5,0,12,1539,1539,0,0,0,0,5,692
5,0,12,1539,1539,0,0,0,0,5,627
5,0,12,1539,1539,0,0,0,0,5,618
5,0,12,1539,1539,0,0,0,0,5,619
5,0,12,1539,1539,0,0,0,0,5,706
5,0,12,1539,1539,0,0,0,0,5,630
5,0,12,1539,1539,0,0,0,0,5,655
1,5,12,924,591,0,0,3,0,3,9077
1,5,12,924,591,0,0,3,0,3,10411
1,5,12,924,591,0,0,3,0,3,10126
1,5,12,924,591,0,0,3,0,3,9152
1,5,12,924,591,0,0,3,0,3,9246
1,5,12,924,591,0,0,3,0,3,8832
1,5,12,924,591,0,0,3,0,3,9398
1,5,12,924,591,0,0,3,0,3,8943
1,5,12,924,591,0,0,3,0,3,9242
1,5,12,924,591,0,0,3,0,3,9249
1,5,12,924,591,0,0,3,0,3,9640
1,5,12,924,591,0,0,3,0,3,9116
1,5,12,924,591,0,0,3,0,3,9377
1,5,12,924,591,0,0,3,0,3,9110
1,5,12,924,591,0,0,3,0,3,8850
1,5,12,924,591,0,0,3,0,3,8456
1,5,12,924,591,0,0,3,0,3,8708
1,5,12,924,591,0,0,3,0,3,8720
1,5,12,924,591,0,0,3,0,3,8627
1,5,12,924,591,0,0,3,0,3,8542
1,5,12,924,591,0,0,3,0,3,8642
1,5,12,924,591,0,0,3,0,3,8448
1,5,12,924,591,0,0,3,0,3,8531
1,5,12,924,591,0,0,3,0,3,8829
1,5,12,924,591,0,0,3,0,3,8482
1,5,12,924,591,0,0,3,0,3,8651
1,5,12,924,591,0,0,3,0,3,8709
1,5,12,924,591,0,0,3,0,3,8413
1,5,12,924,591,0,0,3,0,3,8477
1,5,12,924,591,0,0,3,0,3,9307
1,5,12,924,591,0,0,3,0,3,8973
1,5,12,924,591,0,0,3,0,3,19313
1,5,12,924,591,0,0,3,0,3,8632
1,5,12,924,591,0,0,3,0,3,8445
1,5,12,924,591,0,0,3,0,3,8703
1,5,12,924,591,0,0,3,0,3,8751
1,5,12,924,591,0,0,3,0,3,8512
1,5,12,924,591,0,0,3,0,3,8631
1,5,12,924,591,0,0,3,0,3,8675
1,5,12,924,591,0,0,3,0,3,8278
1,5,12,924,591,0,0,3,0,3,8338
1,5,12,924,591,0,0,3,0,3,8487
1,5,12,924,591,0,0,3,0,3,8811
1,5,12,924,591,0,0,3,0,3,8458
1,5,12,924,591,0,0,3,0,3,8567
1,5,12,924,591,0,0,3,0,3,8755
1,5,12,924,591,0,0,3,0,3,8332
1,5,12,924,591,0,0,3,0,3,8480
1,5,12,924,591,0,0,3,0,3,8616
1,5,12,924,591,0,0,3,0,3,8659
1,5,12,924,591,0,0,3,0,3,8230
1,5,12,924,591,0,0,3,0,3,8447
1,5,12,924,591,0,0,3,0,3,8684
1,5,12,924,591,0,0,3,0,3,8794
1,5,12,924,591,0,0,3,0,3,8497
1,5,12,924,591,0,0,3,0,3,8627
1,5,12,924,591,0,0,3,0,3,8507
1,5,12,924,591,0,0,3,0,3,8629
1,5,12,924,591,0,0,3,0,3,8572
1,5,12,924,591,0,0,3,0,3,8624
1,5,12,924,591,0,0,3,0,3,8563
1,5,12,924,591,0,0,3,0,3,8334
1,5,12,924,591,0,0,3,0,3,8646
1,5,12,924,591,0,0,3,0,3,8602
1,5,12,924,591,0,0,3,0,3,8615
1,5,12,924,591,0,0,3,0,3,8753
1,5,12,924,591,0,0,3,0,3,8788
1,5,12,924,591,0,0,3,0,3,8700
1,5,12,924,591,0,0,3,0,3,8343
1,5,12,924,591,0,0,3,0,3,8625
1,5,12,924,591,0,0,3,0,3,8292
1,5,12,924,591,0,0,3,0,3,8716
1,5,12,924,591,0,0,3,0,3,8520
1,5,12,924,591,0,0,3,0,3,8818
1,5,12,924,591,0,0,3,0,3,8606
1,5,12,924,591,0,0,3,0,3,8521
1,5,12,924,591,0,0,3,0,3,8274
1,5,12,924,591,0,0,3,0,3,8376
1,5,12,924,591,0,0,3,0,3,8340
1,5,12,924,591,0,0,3,0,3,8634
1,5,12,924,591,0,0,3,0,3,8538
1,5,12,924,591,0,0,3,0,3,8467
1,5,12,924,591,0,0,3,0,3,8564
1,5,12,924,591,0,0,3,0,3,9517
1,5,12,924,591,0,0,3,0,3,9471
1,5,12,924,591,0,0,3,0,3,9140
1,5,12,924,591,0,0,3,0,3,8448
1,5,12,924,591,0,0,3,0,3,8673
1,5,12,924,591,0,0,3,0,3,8348
1,5,12,924,591,0,0,3,0,3,8417
1,5,12,924,591,0,0,3,0,3,8531
1,5,12,924,591,0,0,3,0,3,8509
1,5,12,924,591,0,0,3,0,3,8765
1,5,12,924,591,0,0,3,0,3,8603
1,5,12,924,591,0,0,3,0,3,8417
1,5,12,924,591,0,0,3,0,3,8652
1,5,12,924,591,0,0,3,0,3,8453
1,5,12,924,591,0,0,3,0,3,8742
1,5,12,924,591,0,0,3,0,3,8469
1,5,12,924,591,0,0,3,0,3,8360
4,3,12,1179,1179,0,0,0,0,5,3187
4,3,12,1179,1179,0,0,0,0,5,3787
4,3,12,1179,1179,0,0,0,0,5,3649
4,3,12,1179,1179,0,0,0,0,5,3787
4,3,12,1179,1179,0,0,0,0,5,3792
4,3,12,1179,1179,0,0,0,0,5,3876
4,3,12,1179,1179,0,0,0,0,5,3882
4,3,12,1179,1179,0,0,0,0,5,3641
4,3,12,1179,1179,0,0,0,0,5,3555
4,3,12,1179,1179,0,0,0,0,5,3645
4,3,12,1179,1179,0,0,0,0,5,3548
4,3,12,1179,1179,0,0,0,0,5,3454
4,3,12,1179,1179,0,0,0,0,5,3649
4,3,12,1179,1179,0,0,0,0,5,3466
4,3,12,1179,1179,0,0,0,0,5,3533
4,3,12,1179,1179,0,0,0,0,5,3554
4,3,12,1179,1179,0,0,0,0,5,3743
4,3,12,1179,1179,0,0,0,0,5,3487
4,3,12,1179,1179,0,0,0,0,5,3683
4,3,12,1179,1179,0,0,0,0,5,3642
4,3,12,1179,1179,0,0,0,0,5,3801
4,3,12,1179,1179,0,0,0,0,5,3555
4,3,12,1179,1179,0,0,0,0,5,3653
4,3,12,1179,1179,0,0,0,0,5,3678
4,3,12,1179,1179,0,0,0,0,5,3531
4,3,12,1179,1179,0,0,0,0,5,3552
4,3,12,1179,1179,0,0,0,0,5,3419
4,3,12,1179,1179,0,0,0,0,5,3456
4,3,12,1179,1179,0,0,0,0,5,3489
4,3,12,1179,1179,0,0,0,0,5,3438
4,3,12,1179,1179,0,0,0,0,5,3502
4,3,12,1179,1179,0,0,0,0,5,3522
4,3,12,1179,1179,0,0,0,0,5,3594
4,3,12,1179,1179,0,0,0,0,5,3578
4,3,12,1179,1179,0,0,0,0,5,3660
4,3,12,1179,1179,0,0,0,0,5,3752
4,3,12,1179,1179,0,0,0,0,5,3770
4,3,12,1179,1179,0,0,0,0,5,3564
4,3,12,1179,1179,0,0,0,0,5,3519
4,3,12,1179,1179,0,0,0,0,5,3493
4,3,12,1179,1179,0,0,0,0,5,3561
4,3,12,1179,1179,0,0,0,0,5,3614
4,3,12,1179,1179,0,0,0,0,5,3625
4,3,12,1179,1179,0,0,0,0,5,3472
4,3,12,1179,1179,0,0,0,0,5,3554
4,3,12,1179,1179,0,0,0,0,5,3506
4,3,12,1179,1179,0,0,0,0,5,3648
4,3,12,1179,1179,0,0,0,0,5,3642
4,3,12,1179,1179,0,0,0,0,5,3520
4,3,12,1179,1179,0,0,0,0,5,3603
4,3,12,1179,1179,0,0,0,0,5,3509
4,3,12,1179,1179,0,0,0,0,5,3475
4,3,12,1179,1179,0,0,0,0,5,3496
4,3,12,1179,1179,0,0,0,0,5,3416
4,3,12,1179,1179,0,0,0,0,5,3442
4,3,12,1179,1179,0,0,0,0,5,3646
4,3,12,1179,1179,0,0,0,0,5,3678
4,3,12,1179,1179,0,0,0,0,5,3466
4,3,12,1179,1179,0,0,0,0,5,3479
4,3,12,1179,1179,0,0,0,0,5,3395
4,3,12,1179,1179,0,0,0,0,5,3521
4,3,12,1179,1179,0,0,0,0,5,3497
4,3,12,1179,1179,0,0,0,0,5,3693
4,3,12,1179,1179,0,0,0,0,5,3561
4,3,12,1179,1179,0,0,0,0,5,3503
4,3,12,1179,1179,0,0,0,0,5,3494
4,3,12,1179,1179,0,0,0,0,5,3619
4,3,12,1179,1179,0,0,0,0,5,3419
4,3,12,1179,1179,0,0,0,0,5,3564
4,3,12,1179,1179,0,0,0,0,5,3632
4,3,12,1179,1179,0,0,0,0,5,3601
4,3,12,1179,1179,0,0,0,0,5,3474
4,3,12,1179,1179,0,0,0,0,5,3479
4,3,12,1179,1179,0,0,0,0,5,3612
4,3,12,1179,1179,0,0,0,0,5,3542
4,3,12,1179,1179,0,0,0,0,5,3669
4,3,12,1179,1179,0,0,0,0,5,3507
4,3,12,1179,1179,0,0,0,0,5,3559
4,3,12,1179,1179,0,0,0,0,5,3578
4,3,12,1179,1179,0,0,0,0,5,3578
4,3,12,1179,1179,0,0,0,0,5,3469
4,3,12,1179,1179,0,0,0,0,5,3441
4,3,12,1179,1179,0,0,0,0,5,3818
4,3,12,1179,1179,0,0,0,0,5,3583
4,3,12,1179,1179,0,0,0,0,5,3872
4,3,12,1179,1179,0,0,0,0,5,3706
4,3,12,1179,1179,0,0,0,0,5,3612
4,3,12,1179,1179,0,0,0,0,5,3443
4,3,12,1179,1179,0,0,0,0,5,3775
4,3,12,1179,1179,0,0,0,0,5,3672
4,3,12,1179,1179,0,0,0,0,5,3411
4,3,12,1179,1179,0,0,0,0,5,3667
4,3,12,1179,1179,0,0,0,0,5,3517
4,3,12,1179,1179,0,0,0,0,5,3648
4,3,12,1179,1179,0,0,0,0,5,3560
4,3,12,1179,1179,0,0,0,0,5,3535
4,3,12,1179,1179,0,0,0,0,5,3436
4,3,12,1179,1179,0,0,0,0,5,3434
4,3,12,1179,1179,0,0,0,0,5,4021
4,3,12,1179,1179,0,0,0,0,5,3533
6,2,12,2263,2263,0,0,0,0,7,4706
6,2,12,2263,2263,0,0,0,0,7,2882
6,2,12,2263,2263,0,0,0,0,7,2769
6,2,12,2263,2263,0,0,0,0,7,2703
6,2,12,2263,2263,0,0,0,0,7,2793
6,2,12,2263,2263,0,0,0,0,7,2649
6,2,12,2263,2263,0,0,0,0,7,2937
6,2,12,2263,2263,0,0,0,0,7,2618
6,2,12,2263,2263,0,0,0,0,7,2826
6,2,12,2263,2263,0,0,0,0,7,2821
6,2,12,2263,2263,0,0,0,0,7,3226
6,2,12,2263,2263,0,0,0,0,7,3110
6,2,12,2263,2263,0,0,0,0,7,2988
6,2,12,2263,2263,0,0,0,0,7,3846
6,2,12,2263,2263,0,0,0,0,7,2839
6,2,12,2263,2263,0,0,0,0,7,3105
6,2,12,2263,2263,0,0,0,0,7,3204
6,2,12,2263,2263,0,0,0,0,7,2845
6,2,12,2263,2263,0,0,0,0,7,2561
6,2,12,2263,2263,0,0,0,0,7,3651
6,2,12,2263,2263,0,0,0,0,7,2928
6,2,12,2263,2263,0,0,0,0,7,2609
6,2,12,2263,2263,0,0,0,0,7,3293
6,2,12,2263,2263,0,0,0,0,7,3265
6,2,12,2263,2263,0,0,0,0,7,2826
6,2,12,2263,2263,0,0,0,0,7,2826
6,2,12,2263,2263,0,0,0,0,7,2660
6,2,12,2263,2263,0,0,0,0,7,3271
6,2,12,2263,2263,0,0,0,0,7,2667
6,2,12,2263,2263,0,0,0,0,7,2496
6,2,12,2263,2263,0,0,0,0,7,2747
6,2,12,2263,2263,0,0,0,0,7,2593
6,2,12,2263,2263,0,0,0,0,7,2518
6,2,12,2263,2263,0,0,0,0,7,2762
6,2,12,2263,2263,0,0,0,0,7,2505
6,2,12,2263,2263,0,0,0,0,7,2501
6,2,12,2263,2263,0,0,0,0,7,2588
6,2,12,2263,2263,0,0,0,0,7,2541
6,2,12,2263,2263,0,0,0,0,7,2438
6,2,12,2263,2263,0,0,0,0,7,2856
6,2,12,2263,2263,0,0,0,0,7,2874
6,2,12,2263,2263,0,0,0,0,7,2766
6,2,12,2263,2263,0,0,0,0,7,2716
6,2,12,2263,2263,0,0,0,0,7,2629
6,2,12,2263,2263,0,0,0,0,7,2700
6,2,12,2263,2263,0,0,0,0,7,2638
6,2,12,2263,2263,0,0,0,0,7,2707
6,2,12,2263,2263,0,0,0,0,7,2536
6,2,12,2263,2263,0,0,0,0,7,2703
6,2,12,2263,2263,0,0,0,0,7,2635
6,2,12,2263,2263,0,0,0,0,7,2461
6,2,12,2263,2263,0,0,0,0,7,13733
6,2,12,2263,2263,0,0,0,0,7,2345
6,2,12,2263,2263,0,0,0,0,7,2360
6,2,12,2263,2263,0,0,0,0,7,2314
6,2,12,2263,2263,0,0,0,0,7,2305
6,2,12,2263,2263,0,0,0,0,7,2350
6,2,12,2263,2263,0,0,0,0,7,2273
6,2,12,2263,2263,0,0,0,0,7,2400
6,2,12,2263,2263,0,0,0,0,7,2591
6,2,12,2263,2263,0,0,0,0,7,2320
6,2,12,2263,2263,0,0,0,0,7,2292
6,2,12,2263,2263,0,0,0,0,7,2240
6,2,12,2263,2263,0,0,0,0,7,2353
6,2,12,2263,2263,0,0,0,0,7,2537
6,2,12,2263,2263,0,0,0,0,7,2519
6,2,12,2263,2263,0,0,0,0,7,2281
6,2,12,2263,2263,0,0,0,0,7,2346
6,2,12,2263,2263,0,0,0,0,7,2320
6,2,12,2263,2263,0,0,0,0,7,2320
6,2,12,2263,2263,0,0,0,0,7,2335
6,2,12,2263,2263,0,0,0,0,7,2470
6,2,12,2263,2263,0,0,0,0,7,2433
6,2,12,2263,2263,0,0,0,0,7,2400
6,2,12,2263,2263,0,0,0,0,7,2260
6,2,12,2263,2263,0,0,0,0,7,2234
6,2,12,2263,2263,0,0,0,0,7,2246
6,2,12,2263,2263,0,0,0,0,7,2441
6,2,12,2263,2263,0,0,0,0,7,2360
6,2,12,2263,2263,0,0,0,0,7,2297
6,2,12,2263,2263,0,0,0,0,7,2337
6,2,12,2263,2263,0,0,0,0,7,2320
6,2,12,2263,2263,0,0,0,0,7,2358
6,2,12,2263,2263,0,0,0,0,7,2324
6,2,12,2263,2263,0,0,0,0,7,2385
6,2,12,2263,2263,0,0,0,0,7,2291
6,2,12,2263,2263,0,0,0,0,7,2243
6,2,12,2263,2263,0,0,0,0,7,2385
6,2,12,2263,2263,0,0,0,0,7,2322
6,2,12,2263,2263,0,0,0,0,7,2350
6,2,12,2263,2263,0,0,0,0,7,2243
6,2,12,2263,2263,0,0,0,0,7,2302
6,2,12,2263,2263,0,0,0,0,7,2344
6,2,12,2263,2263,0,0,0,0,7,2492
6,2,12,2263,2263,0,0,0,0,7,2341
6,2,12,2263,2263,0,0,0,0,7,2327
6,2,12,2263,2263,0,0,0,0,7,2307
6,2,12,2263,2263,0,0,0,0,7,2370
6,2,12,2263,2263,0,0,0,0,7,2305
6,2,12,2263,2263,0,0,0,0,7,2329
5,4,12,1511,1511,0,0,0,0,6,3778
5,4,12,1511,1511,0,0,0,0,6,4621
5,4,12,1511,1511,0,0,0,0,6,4693
5,4,12,1511,1511,0,0,0,0,6,4829
5,4,12,1511,1511,0,0,0,0,6,4342
5,4,12,1511,1511,0,0,0,0,6,4415
5,4,12,1511,1511,0,0,0,0,6,4459
5,4,12,1511,1511,0,0,0,0,6,4253
5,4,12,1511,1511,0,0,0,0,6,4341
5,4,12,1511,1511,0,0,0,0,6,4787
5,4,12,1511,1511,0,0,0,0,6,4717
5,4,12,1511,1511,0,0,0,0,6,4236
5,4,12,1511,1511,0,0,0,0,6,4706
5,4,12,1511,1511,0,0,0,0,6,4840
5,4,12,1511,1511,0,0,0,0,6,4438
5,4,12,1511,1511,0,0,0,0,6,4820
5,4,12,1511,1511,0,0,0,0,6,4327
5,4,12,1511,1511,0,0,0,0,6,4225
5,4,12,1511,1511,0,0,0,0,6,4490
5,4,12,1511,1511,0,0,0,0,6,4249
5,4,12,1511,1511,0,0,0,0,6,4479
5,4,12,1511,1511,0,0,0,0,6,4266
5,4,12,1511,1511,0,0,0,0,6,4351
5,4,12,1511,1511,0,0,0,0,6,4242
5,4,12,1511,1511,0,0,0,0,6,4540
5,4,12,1511,1511,0,0,0,0,6,4296
5,4,12,1511,1511,0,0,0,0,6,4534
5,4,12,1511,1511,0,0,0,0,6,4345
5,4,12,1511,1511,0,0,0,0,6,4395
5,4,12,1511,1511,0,0,0,0,6,4200
5,4,12,1511,1511,0,0,0,0,6,4366
5,4,12,1511,1511,0,0,0,0,6,4337
5,4,12,1511,1511,0,0,0,0,6,4362
5,4,12,1511,1511,0,0,0,0,6,4261
5,4,12,1511,1511,0,0,0,0,6,4318
5,4,12,1511,1511,0,0,0,0,6,4263
5,4,12,1511,1511,0,0,0,0,6,4123
5,4,12,1511,1511,0,0,0,0,6,4254
5,4,12,1511,1511,0,0,0,0,6,4387
5,4,12,1511,1511,0,0,0,0,6,4229
5,4,12,1511,1511,0,0,0,0,6,4432
5,4,12,1511,1511,0,0,0,0,6,4294
5,4,12,1511,1511,0,0,0,0,6,4410
5,4,12,1511,1511,0,0,0,0,6,4223
5,4,12,1511,1511,0,0,0,0,6,4193
5,4,12,1511,1511,0,0,0,0,6,4329
5,4,12,1511,1511,0,0,0,0,6,4300
5,4,12,1511,1511,0,0,0,0,6,4304
5,4,12,1511,1511,0,0,0,0,6,4262
5,4,12,1511,1511,0,0,0,0,6,4279
5,4,12,1511,1511,0,0,0,0,6,4124
5,4,12,1511,1511,0,0,0,0,6,4493
5,4,12,1511,1511,0,0,0,0,6,4196
5,4,12,1511,1511,0,0,0,0,6,4259
5,4,12,1511,1511,0,0,0,0,6,4276
5,4,12,1511,1511,0,0,0,0,6,4460
5,4,12,1511,1511,0,0,0,0,6,4213
5,4,12,1511,1511,0,0,0,0,6,4514
5,4,12,1511,1511,0,0,0,0,6,4260
5,4,12,1511,1511,0,0,0,0,6,4223
5,4,12,1511,1511,0,0,0,0,6,4220
5,4,12,1511,1511,0,0,0,0,6,4432
5,4,12,1511,1511,0,0,0,0,6,4117
5,4,12,1511,1511,0,0,0,0,6,4242
5,4,12,1511,1511,0,0,0,0,6,4205
5,4,12,1511,1511,0,0,0,0,6,4364
5,4,12,1511,1511,0,0,0,0,6,4200
5,4,12,1511,1511,0,0,0,0,6,4208
5,4,12,1511,1511,0,0,0,0,6,4094
5,4,12,1511,1511,0,0,0,0,6,4215
5,4,12,1511,1511,0,0,0,0,6,4274
5,4,12,1511,1511,0,0,0,0,6,4354
5,4,12,1511,1511,0,0,0,0,6,4263
5,4,12,1511,1511,0,0,0,0,6,4204
5,4,12,1511,1511,0,0,0,0,6,4357
5,4,12,1511,1511,0,0,0,0,6,4227
5,4,12,1511,1511,0,0,0,0,6,4214
5,4,12,1511,1511,0,0,0,0,6,4338
5,4,12,1511,1511,0,0,0,0,6,4103
5,4,12,1511,1511,0,0,0,0,6,4418
5,4,12,1511,1511,0,0,0,0,6,4206
5,4,12,1511,1511,0,0,0,0,6,4088
5,4,12,1511,1511,0,0,0,0,6,4233
5,4,12,1511,1511,0,0,0,0,6,4399
5,4,12,1511,1511,0,0,0,0,6,4283
5,4,12,1511,1511,0,0,0,0,6,4404
5,4,12,1511,1511,0,0,0,0,6,4124
5,4,12,1511,1511,0,0,0,0,6,4486
5,4,12,1511,1511,0,0,0,0,6,4284
5,4,12,1511,1511,0,0,0,0,6,4175
5,4,12,1511,1511,0,0,0,0,6,4301
5,4,12,1511,1511,0,0,0,0,6,4169
5,4,12,1511,1511,0,0,0,0,6,4093
5,4,12,1511,1511,0,0,0,0,6,4165
5,4,12,1511,1511,0,0,0,0,6,4174
5,4,12,1511,1511,0,0,0,0,6,4455
5,4,12,1511,1511,0,0,0,0,6,4223
5,4,12,1511,1511,0,0,0,0,6,15096
5,4,12,1511,1511,0,0,0,0,6,4903
5,4,12,1511,1511,0,0,0,0,6,4770
10,0,12,2185,2185,0,0,0,0,10,1082
10,0,12,2185,2185,0,0,0,0,10,1060
10,0,12,2185,2185,0,0,0,0,10,962
10,0,12,2185,2185,0,0,0,0,10,948
10,0,12,2185,2185,0,0,0,0,10,1088
10,0,12,2185,2185,0,0,0,0,10,1048
10,0,12,2185,2185,0,0,0,0,10,951
10,0,12,2185,2185,0,0,0,0,10,918
10,0,12,2185,2185,0,0,0,0,10,912
10,0,12,2185,2185,0,0,0,0,10,886
10,0,12,2185,2185,0,0,0,0,10,988
10,0,12,2185,2185,0,0,0,0,10,971
10,0,12,2185,2185,0,0,0,0,10,950
10,0,12,2185,2185,0,0,0,0,10,906
10,0,12,2185,2185,0,0,0,0,10,948
10,0,12,2185,2185,0,0,0,0,10,1031
10,0,12,2185,2185,0,0,0,0,10,895
10,0,12,2185,2185,0,0,0,0,10,870
10,0,12,2185,2185,0,0,0,0,10,855
10,0,12,2185,2185,0,0,0,0,10,883
10,0,12,2185,2185,0,0,0,0,10,882
10,0,12,2185,2185,0,0,0,0,10,914
10,0,12,2185,2185,0,0,0,0,10,901
10,0,12,2185,2185,0,0,0,0,10,922
10,0,12,2185,2185,0,0,0,0,10,857
10,0,12,2185,2185,0,0,0,0,10,911
10,0,12,2185,2185,0,0,0,0,10,900
10,0,12,2185,2185,0,0,0,0,10,837
10,0,12,2185,2185,0,0,0,0,10,855
10,0,12,2185,2185,0,0,0,0,10,920
10,0,12,2185,2185,0,0,0,0,10,868
10,0,12,2185,2185,0,0,0,0,10,956
10,0,12,2185,2185,0,0,0,0,10,863
10,0,12,2185,2185,0,0,0,0,10,877
10,0,12,2185,2185,0,0,0,0,10,915
10,0,12,2185,2185,0,0,0,0,10,875
10,0,12,2185,2185,0,0,0,0,10,915
10,0,12,2185,2185,0,0,0,0,10,896
10,0,12,2185,2185,0,0,0,0,10,865
10,0,12,2185,2185,0,0,0,0,10,1038
10,0,12,2185,2185,0,0,0,0,10,1023
10,0,12,2185,2185,0,0,0,0,10,906
10,0,12,2185,2185,0,0,0,0,10,888
10,0,12,2185,2185,0,0,0,0,10,843
10,0,12,2185,2185,0,0,0,0,10,835
10,0,12,2185,2185,0,0,0,0,10,859
10,0,12,2185,2185,0,0,0,0,10,848
10,0,12,2185,2185,0,0,0,0,10,884
10,0,12,2185,2185,0,0,0,0,10,847
10,0,12,2185,2185,0,0,0,0,10,873
10,0,12,2185,2185,0,0,0,0,10,851
10,0,12,2185,2185,0,0,0,0,10,887
10,0,12,2185,2185,0,0,0,0,10,858
10,0,12,2185,2185,0,0,0,0,10,901
10,0,12,2185,2185,0,0,0,0,10,877
10,0,12,2185,2185,0,0,0,0,10,837
10,0,12,2185,2185,0,0,0,0,10,877
10,0,12,2185,2185,0,0,0,0,10,844
10,0,12,2185,2185,0,0,0,0,10,849
10,0,12,2185,2185,0,0,0,0,10,897
10,0,12,2185,2185,0,0,0,0,10,854
10,0,12,2185,2185,0,0,0,0,10,846
10,0,12,2185,2185,0,0,0,0,10,839
10,0,12,2185,2185,0,0,0,0,10,876
10,0,12,2185,2185,0,0,0,0,10,845
10,0,12,2185,2185,0,0,0,0,10,835
10,0,12,2185,2185,0,0,0,0,10,866
10,0,12,2185,2185,0,0,0,0,10,905
10,0,12,2185,2185,0,0,0,0,10,871
10,0,12,2185,2185,0,0,0,0,10,876
10,0,12,2185,2185,0,0,0,0,10,851
10,0,12,2185,2185,0,0,0,0,10,858
10,0,12,2185,2185,0,0,0,0,10,1071
10,0,12,2185,2185,0,0,0,0,10,844
10,0,12,2185,2185,0,0,0,0,10,857
10,0,12,2185,2185,0,0,0,0,10,868
10,0,12,2185,2185,0,0,0,0,10,856
10,0,12,2185,2185,0,0,0,0,10,873
10,0,12,2185,2185,0,0,0,0,10,832
10,0,12,2185,2185,0,0,0,0,10,886
10,0,12,2185,2185,0,0,0,0,10,853
10,0,12,2185,2185,0,0,0,0,10,848
10,0,12,2185,2185,0,0,0,0,10,837
10,0,12,2185,2185,0,0,0,0,10,858
10,0,12,2185,2185,0,0,0,0,10,893
10,0,12,2185,2185,0,0,0,0,10,895
10,0,12,2185,2185,0,0,0,0,10,935
10,0,12,2185,2185,0,0,0,0,10,917
10,0,12,2185,2185,0,0,0,0,10,835
10,0,12,2185,2185,0,0,0,0,10,899
10,0,12,2185,2185,0,0,0,0,10,910
10,0,12,2185,2185,0,0,0,0,10,872
10,0,12,2185,2185,0,0,0,0,10,1008
10,0,12,2185,2185,0,0,0,0,10,876
10,0,12,2185,2185,0,0,0,0,10,841
10,0,12,2185,2185,0,0,0,0,10,964
10,0,12,2185,2185,0,0,0,0,10,907
10,0,12,2185,2185,0,0,0,0,10,892
10,0,12,2185,2185,0,0,0,0,10,900
10,0,12,2185,2185,0,0,0,0,10,890
2,9,12,2973,2126,3,0,1,0,7,27445
2,9,12,2973,2126,3,0,1,0,7,40938
2,9,12,2973,2126,3,0,1,0,7,28846
2,9,12,2973,2126,3,0,1,0,7,28796
2,9,12,2973,2126,3,0,1,0,7,28617
2,9,12,2973,2126,3,0,1,0,7,29055
2,9,12,2973,2126,3,0,1,0,7,28840
2,9,12,2973,2126,3,0,1,0,7,28750
2,9,12,2973,2126,3,0,1,0,7,28728
2,9,12,2973,2126,3,0,1,0,7,28684
2,9,12,2973,2126,3,0,1,0,7,28676
2,9,12,2973,2126,3,0,1,0,7,28577
2,9,12,2973,2126,3,0,1,0,7,28449
2,9,12,2973,2126,3,0,1,0,7,28784
2,9,12,2973,2126,3,0,1,0,7,28858
2,9,12,2973,2126,3,0,1,0,7,28641
2,9,12,2973,2126,3,0,1,0,7,28583
2,9,12,2973,2126,3,0,1,0,7,28298
2,9,12,2973,2126,3,0,1,0,7,28571
2,9,12,2973,2126,3,0,1,0,7,28975
2,9,12,2973,2126,3,0,1,0,7,28502
2,9,12,2973,2126,3,0,1,0,7,29154
2,9,12,2973,2126,3,0,1,0,7,28673
2,9,12,2973,2126,3,0,1,0,7,28655
2,9,12,2973,2126,3,0,1,0,7,28621
2,9,12,2973,2126,3,0,1,0,7,28354
2,9,12,2973,2126,3,0,1,0,7,28547
2,9,12,2973,2126,3,0,1,0,7,28564
2,9,12,2973,2126,3,0,1,0,7,28470
2,9,12,2973,2126,3,0,1,0,7,28411
2,9,12,2973,2126,3,0,1,0,7,28529
2,9,12,2973,2126,3,0,1,0,7,28683
2,9,12,2973,2126,3,0,1,0,7,28358
2,9,12,2973,2126,3,0,1,0,7,28441
2,9,12,2973,2126,3,0,1,0,7,28620
2,9,12,2973,2126,3,0,1,0,7,28653
2,9,12,2973,2126,3,0,1,0,7,28308
2,9,12,2973,2126,3,0,1,0,7,28397
2,9,12,2973,2126,3,0,1,0,7,28429
2,9,12,2973,2126,3,0,1,0,7,28799
2,9,12,2973,2126,3,0,1,0,7,28589
2,9,12,2973,2126,3,0,1,0,7,28761
2,9,12,2973,2126,3,0,1,0,7,28780
2,9,12,2973,2126,3,0,1,0,7,28589
2,9,12,2973,2126,3,0,1,0,7,28530
2,9,12,2973,2126,3,0,1,0,7,28396
2,9,12,2973,2126,3,0,1,0,7,28857
2,9,12,2973,2126,3,0,1,0,7,28527
2,9,12,2973,2126,3,0,1,0,7,28567
2,9,12,2973,2126,3,0,1,0,7,28513
2,9,12,2973,2126,3,0,1,0,7,29033
2,9,12,2973,2126,3,0,1,0,7,28615
2,9,12,2973,2126,3,0,1,0,7,28379
2,9,12,2973,2126,3,0,1,0,7,28688
2,9,12,2973,2126,3,0,1,0,7,28674
2,9,12,2973,2126,3,0,1,0,7,28675
2,9,12,2973,2126,3,0,1,0,7,28823
2,9,12,2973,2126,3,0,1,0,7,28579
2,9,12,2973,2126,3,0,1,0,7,28438
2,9,12,2973,2126,3,0,1,0,7,28915
2,9,12,2973,2126,3,0,1,0,7,28750
2,9,12,2973,2126,3,0,1,0,7,28718
2,9,12,2973,2126,3,0,1,0,7,28771
2,9,12,2973,2126,3,0,1,0,7,28893
2,9,12,2973,2126,3,0,1,0,7,28774
2,9,12,2973,2126,3,0,1,0,7,28557
2,9,12,2973,2126,3,0,1,0,7,28660
2,9,12,2973,2126,3,0,1,0,7,28553
2,9,12,2973,2126,3,0,1,0,7,28648
2,9,12,2973,2126,3,0,1,0,7,28568
2,9,12,2973,2126,3,0,1,0,7,28725
2,9,12,2973,2126,3,0,1,0,7,28783
2,9,12,2973,2126,3,0,1,0,7,28967
2,9,12,2973,2126,3,0,1,0,7,28434
2,9,12,2973,2126,3,0,1,0,7,28765
2,9,12,2973,2126,3,0,1,0,7,28712
2,9,12,2973,2126,3,0,1,0,7,28473
2,9,12,2973,2126,3,0,1,0,7,28602
2,9,12,2973,2126,3,0,1,0,7,44463
2,9,12,2973,2126,3,0,1,0,7,41728
2,9,12,2973,2126,3,0,1,0,7,28942
2,9,12,2973,2126,3,0,1,0,7,28608
2,9,12,2973,2126,3,0,1,0,7,28654
2,9,12,2973,2126,3,0,1,0,7,28995
2,9,12,2973,2126,3,0,1,0,7,40063
2,9,12,2973,2126,3,0,1,0,7,41594
2,9,12,2973,2126,3,0,1,0,7,29032
2,9,12,2973,2126,3,0,1,0,7,28819
2,9,12,2973,2126,3,0,1,0,7,28637
2,9,12,2973,2126,3,0,1,0,7,28826
2,9,12,2973,2126,3,0,1,0,7,28811
2,9,12,2973,2126,3,0,1,0,7,28573
2,9,12,2973,2126,3,0,1,0,7,29111
2,9,12,2973,2126,3,0,1,0,7,28710
2,9,12,2973,2126,3,0,1,0,7,28576
2,9,12,2973,2126,3,0,1,0,7,28808
2,9,12,2973,2126,3,0,1,0,7,28819
2,9,12,2973,2126,3,0,1,0,7,28918
2,9,12,2973,2126,3,0,1,0,7,28932
2,9,12,2973,2126,3,0,1,0,7,29000
6,6,12,4711,4147,4,0,1,0,11,17373
6,6,12,4711,4147,4,0,1,0,11,32782
6,6,12,4711,4147,4,0,1,0,11,20294
6,6,12,4711,4147,4,0,1,0,11,20474
6,6,12,4711,4147,4,0,1,0,11,20155
6,6,12,4711,4147,4,0,1,0,11,20230
6,6,12,4711,4147,4,0,1,0,11,20059
6,6,12,4711,4147,4,0,1,0,11,20209
6,6,12,4711,4147,4,0,1,0,11,19907
6,6,12,4711,4147,4,0,1,0,11,20038
6,6,12,4711,4147,4,0,1,0,11,20196
6,6,12,4711,4147,4,0,1,0,11,20383
6,6,12,4711,4147,4,0,1,0,11,19942
6,6,12,4711,4147,4,0,1,0,11,20120
6,6,12,4711,4147,4,0,1,0,11,20132
6,6,12,4711,4147,4,0,1,0,11,20207
6,6,12,4711,4147,4,0,1,0,11,20113
6,6,12,4711,4147,4,0,1,0,11,20170
6,6,12,4711,4147,4,0,1,0,11,19950
6,6,12,4711,4147,4,0,1,0,11,20083
6,6,12,4711,4147,4,0,1,0,11,20230
6,6,12,4711,4147,4,0,1,0,11,19988
6,6,12,4711,4147,4,0,1,0,11,19923
6,6,12,4711,4147,4,0,1,0,11,20017
6,6,12,4711,4147,4,0,1,0,11,19939
6,6,12,4711,4147,4,0,1,0,11,20050
6,6,12,4711,4147,4,0,1,0,11,20211
6,6,12,4711,4147,4,0,1,0,11,20067
6,6,12,4711,4147,4,0,1,0,11,20006
6,6,12,4711,4147,4,0,1,0,11,20044
6,6,12,4711,4147,4,0,1,0,11,20063
6,6,12,4711,4147,4,0,1,0,11,20167
6,6,12,4711,4147,4,0,1,0,11,20181
6,6,12,4711,4147,4,0,1,0,11,20358
6,6,12,4711,4147,4,0,1,0,11,20282
6,6,12,4711,4147,4,0,1,0,11,20078
6,6,12,4711,4147,4,0,1,0,11,19939
6,6,12,4711,4147,4,0,1,0,11,20121
6,6,12,4711,4147,4,0,1,0,11,20358
6,6,12,4711,4147,4,0,1,0,11,20118
6,6,12,4711,4147,4,0,1,0,11,20071
6,6,12,4711,4147,4,0,1,0,11,20146
6,6,12,4711,4147,4,0,1,0,11,20263
6,6,12,4711,4147,4,0,1,0,11,20111
6,6,12,4711,4147,4,0,1,0,11,20281
6,6,12,4711,4147,4,0,1,0,11,20389
6,6,12,4711,4147,4,0,1,0,11,20084
6,6,12,4711,4147,4,0,1,0,11,20099
6,6,12,4711,4147,4,0,1,0,11,21272
6,6,12,4711,4147,4,0,1,0,11,30808
6,6,12,4711,4147,4,0,1,0,11,20115
6,6,12,4711,4147,4,0,1,0,11,20268
6,6,12,4711,4147,4,0,1,0,11,19928
6,6,12,4711,4147,4,0,1,0,11,20082
6,6,12,4711,4147,4,0,1,0,11,19942
6,6,12,4711,4147,4,0,1,0,11,20252
6,6,12,4711,4147,4,0,1,0,11,19975
6,6,12,4711,4147,4,0,1,0,11,20160
6,6,12,4711,4147,4,0,1,0,11,19780
6,6,12,4711,4147,4,0,1,0,11,20078
6,6,12,4711,4147,4,0,1,0,11,20081
6,6,12,4711,4147,4,0,1,0,11,20160
6,6,12,4711,4147,4,0,1,0,11,20070
6,6,12,4711,4147,4,0,1,0,11,20112
6,6,12,4711,4147,4,0,1,0,11,20078
6,6,12,4711,4147,4,0,1,0,11,20053
6,6,12,4711,4147,4,0,1,0,11,19997
6,6,12,4711,4147,4,0,1,0,11,20101
6,6,12,4711,4147,4,0,1,0,11,19972
6,6,12,4711,4147,4,0,1,0,11,20111
6,6,12,4711,4147,4,0,1,0,11,20058
6,6,12,4711,4147,4,0,1,0,11,20193
6,6,12,4711,4147,4,0,1,0,11,20143
6,6,12,4711,4147,4,0,1,0,11,20332
6,6,12,4711,4147,4,0,1,0,11,20133
6,6,12,4711,4147,4,0,1,0,11,20374
6,6,12,4711,4147,4,0,1,0,11,20006
6,6,12,4711,4147,4,0,1,0,11,20118
6,6,12,4711,4147,4,0,1,0,11,19965
6,6,12,4711,4147,4,0,1,0,11,19953
6,6,12,4711,4147,4,0,1,0,11,20155
6,6,12,4711,4147,4,0,1,0,11,20157
6,6,12,4711,4147,4,0,1,0,11,20268
6,6,12,4711,4147,4,0,1,0,11,20190
6,6,12,4711,4147,4,0,1,0,11,21272
6,6,12,4711,4147,4,0,1,0,11,20504
6,6,12,4711,4147,4,0,1,0,11,20235
6,6,12,4711,4147,4,0,1,0,11,20023
6,6,12,4711,4147,4,0,1,0,11,20055
6,6,12,4711,4147,4,0,1,0,11,20400
6,6,12,4711,4147,4,0,1,0,11,20053
6,6,12,4711,4147,4,0,1,0,11,19888
6,6,12,4711,4147,4,0,1,0,11,20294
6,6,12,4711,4147,4,0,1,0,11,30552
6,6,12,4711,4147,4,0,1,0,11,21465
6,6,12,4711,4147,4,0,1,0,11,21223
6,6,12,4711,4147,4,0,1,0,11,21374
6,6,12,4711,4147,4,0,1,0,11,31473
6,6,12,4711,4147,4,0,1,0,11,19870
6,6,12,4711,4147,4,0,1,0,11,31564
9,4,12,3002,3002,0,0,0,0,11,4926
9,4,12,3002,3002,0,0,0,0,11,6053
9,4,12,3002,3002,0,0,0,0,11,6055
9,4,12,3002,3002,0,0,0,0,11,6117
9,4,12,3002,3002,0,0,0,0,11,5793
9,4,12,3002,3002,0,0,0,0,11,5788
9,4,12,3002,3002,0,0,0,0,11,5606
9,4,12,3002,3002,0,0,0,0,11,6324
9,4,12,3002,3002,0,0,0,0,11,5751
9,4,12,3002,3002,0,0,0,0,11,5374
9,4,12,3002,3002,0,0,0,0,11,5289
9,4,12,3002,3002,0,0,0,0,11,5576
9,4,12,3002,3002,0,0,0,0,11,5536
9,4,12,3002,3002,0,0,0,0,11,5585
9,4,12,3002,3002,0,0,0,0,11,5387
9,4,12,3002,3002,0,0,0,0,11,5515
9,4,12,3002,3002,0,0,0,0,11,5357
9,4,12,3002,3002,0,0,0,0,11,5803
9,4,12,3002,3002,0,0,0,0,11,5335
9,4,12,3002,3002,0,0,0,0,11,5299
9,4,12,3002,3002,0,0,0,0,11,5924
9,4,12,3002,3002,0,0,0,0,11,5570
9,4,12,3002,3002,0,0,0,0,11,5281
9,4,12,3002,3002,0,0,0,0,11,5770
9,4,12,3002,3002,0,0,0,0,11,5542
9,4,12,3002,3002,0,0,0,0,11,5336
9,4,12,3002,3002,0,0,0,0,11,5447
9,4,12,3002,3002,0,0,0,0,11,5433
9,4,12,3002,3002,0,0,0,0,11,5312
9,4,12,3002,3002,0,0,0,0,11,5441
9,4,12,3002,3002,0,0,0,0,11,5404
9,4,12,3002,3002,0,0,0,0,11,5679
9,4,12,3002,3002,0,0,0,0,11,5577
9,4,12,3002,3002,0,0,0,0,11,5455
9,4,12,3002,3002,0,0,0,0,11,5414
9,4,12,3002,3002,0,0,0,0,11,5271
9,4,12,3002,3002,0,0,0,0,11,5378
9,4,12,3002,3002,0,0,0,0,11,5425
9,4,12,3002,3002,0,0,0,0,11,5547
9,4,12,3002,3002,0,0,0,0,11,5595
9,4,12,3002,3002,0,0,0,0,11,5799
9,4,12,3002,3002,0,0,0,0,11,5544
9,4,12,3002,3002,0,0,0,0,11,5421
9,4,12,3002,3002,0,0,0,0,11,5376
9,4,12,3002,3002,0,0,0,0,11,5678
9,4,12,3002,3002,0,0,0,0,11,5356
9,4,12,3002,3002,0,0,0,0,11,5268
9,4,12,3002,3002,0,0,0,0,11,5498
9,4,12,3002,3002,0,0,0,0,11,5492
9,4,12,3002,3002,0,0,0,0,11,5325
9,4,12,3002,3002,0,0,0,0,11,5522
9,4,12,3002,3002,0,0,0,0,11,5523
9,4,12,3002,3002,0,0,0,0,11,5314
9,4,12,3002,3002,0,0,0,0,11,5462
9,4,12,3002,3002,0,0,0,0,11,5449
9,4,12,3002,3002,0,0,0,0,11,5383
9,4,12,3002,3002,0,0,0,0,11,5578
9,4,12,3002,3002,0,0,0,0,11,5540
9,4,12,3002,3002,0,0,0,0,11,5311
9,4,12,3002,3002,0,0,0,0,11,5614
9,4,12,3002,3002,0,0,0,0,11,5337
9,4,12,3002,3002,0,0,0,0,11,5136
9,4,12,3002,3002,0,0,0,0,11,5573
9,4,12,3002,3002,0,0,0,0,11,5479
9,4,12,3002,3002,0,0,0,0,11,5307
9,4,12,3002,3002,0,0,0,0,11,5437
9,4,12,3002,3002,0,0,0,0,11,5375
9,4,12,3002,3002,0,0,0,0,11,5318
9,4,12,3002,3002,0,0,0,0,11,5554
9,4,12,3002,3002,0,0,0,0,11,5393
9,4,12,3002,3002,0,0,0,0,11,5738
9,4,12,3002,3002,0,0,0,0,11,5512
9,4,12,3002,3002,0,0,0,0,11,5381
9,4,12,3002,3002,0,0,0,0,11,5557
9,4,12,3002,3002,0,0,0,0,11,5412
9,4,12,3002,3002,0,0,0,0,11,5318
9,4,12,3002,3002,0,0,0,0,11,5389
9,4,12,3002,3002,0,0,0,0,11,16307
9,4,12,3002,3002,0,0,0,0,11,5662
9,4,12,3002,3002,0,0,0,0,11,5798
9,4,12,3002,3002,0,0,0,0,11,5768
9,4,12,3002,3002,0,0,0,0,11,6023
9,4,12,3002,3002,0,0,0,0,11,5692
9,4,12,3002,3002,0,0,0,0,11,5840
9,4,12,3002,3002,0,0,0,0,11,5947
9,4,12,3002,3002,0,0,0,0,11,5882
9,4,12,3002,3002,0,0,0,0,11,5758
9,4,12,3002,3002,0,0,0,0,11,5823
9,4,12,3002,3002,0,0,0,0,11,5732
9,4,12,3002,3002,0,0,0,0,11,5719
9,4,12,3002,3002,0,0,0,0,11,5759
9,4,12,3002,3002,0,0,0,0,11,5696
9,4,12,3002,3002,0,0,0,0,11,6028
9,4,12,3002,3002,0,0,0,0,11,5805
9,4,12,3002,3002,0,0,0,0,11,5915
9,4,12,3002,3002,0,0,0,0,11,5820
9,4,12,3002,3002,0,0,0,0,11,5615
9,4,12,3002,3002,0,0,0,0,11,5719
9,4,12,3002,3002,0,0,0,0,11,5827
9,4,12,3002,3002,0,0,0,0,11,5684
10,4,12,2836,2787,0,0,1,0,13,6633
10,4,12,2836,2787,0,0,1,0,13,8945
10,4,12,2836,2787,0,0,1,0,13,8547
10,4,12,2836,2787,0,0,1,0,13,8621
10,4,12,2836,2787,0,0,1,0,13,9024
10,4,12,2836,2787,0,0,1,0,13,8317
10,4,12,2836,2787,0,0,1,0,13,8752
10,4,12,2836,2787,0,0,1,0,13,8560
10,4,12,2836,2787,0,0,1,0,13,8910
10,4,12,2836,2787,0,0,1,0,13,8190
10,4,12,2836,2787,0,0,1,0,13,8227
10,4,12,2836,2787,0,0,1,0,13,8215
10,4,12,2836,2787,0,0,1,0,13,8188
10,4,12,2836,2787,0,0,1,0,13,8107
10,4,12,2836,2787,0,0,1,0,13,8206
10,4,12,2836,2787,0,0,1,0,13,8210
10,4,12,2836,2787,0,0,1,0,13,8240
10,4,12,2836,2787,0,0,1,0,13,8207
10,4,12,2836,2787,0,0,1,0,13,8044
10,4,12,2836,2787,0,0,1,0,13,8371
10,4,12,2836,2787,0,0,1,0,13,8384
10,4,12,2836,2787,0,0,1,0,13,8169
10,4,12,2836,2787,0,0,1,0,13,8364
10,4,12,2836,2787,0,0,1,0,13,8169
10,4,12,2836,2787,0,0,1,0,13,8102
10,4,12,2836,2787,0,0,1,0,13,8255
10,4,12,2836,2787,0,0,1,0,13,8304
10,4,12,2836,2787,0,0,1,0,13,8137
10,4,12,2836,2787,0,0,1,0,13,8232
10,4,12,2836,2787,0,0,1,0,13,8169
10,4,12,2836,2787,0,0,1,0,13,8168
10,4,12,2836,2787,0,0,1,0,13,8159
10,4,12,2836,2787,0,0,1,0,13,8374
10,4,12,2836,2787,0,0,1,0,13,8045
10,4,12,2836,2787,0,0,1,0,13,8099
10,4,12,2836,2787,0,0,1,0,13,8199
10,4,12,2836,2787,0,0,1,0,13,8130
10,4,12,2836,2787,0,0,1,0,13,8112
10,4,12,2836,2787,0,0,1,0,13,8067
10,4,12,2836,2787,0,0,1,0,13,8126
10,4,12,2836,2787,0,0,1,0,13,8069
10,4,12,2836,2787,0,0,1,0,13,7999
10,4,12,2836,2787,0,0,1,0,13,8239
10,4,12,2836,2787,0,0,1,0,13,8100
10,4,12,2836,2787,0,0,1,0,13,8429
10,4,12,2836,2787,0,0,1,0,13,22785
10,4,12,2836,2787,0,0,1,0,13,8640
10,4,12,2836,2787,0,0,1,0,13,7663
10,4,12,2836,2787,0,0,1,0,13,8001
10,4,12,2836,2787,0,0,1,0,13,8023
10,4,12,2836,2787,0,0,1,0,13,7625
10,4,12,2836,2787,0,0,1,0,13,7756
10,4,12,2836,2787,0,0,1,0,13,7515
10,4,12,2836,2787,0,0,1,0,13,8220
10,4,12,2836,2787,0,0,1,0,13,7605
10,4,12,2836,2787,0,0,1,0,13,7865
10,4,12,2836,2787,0,0,1,0,13,7627
10,4,12,2836,2787,0,0,1,0,13,7592
10,4,12,2836,2787,0,0,1,0,13,7734
10,4,12,2836,2787,0,0,1,0,13,7748
10,4,12,2836,2787,0,0,1,0,13,7748
10,4,12,2836,2787,0,0,1,0,13,7894
10,4,12,2836,2787,0,0,1,0,13,7547
10,4,12,2836,2787,0,0,1,0,13,7697
10,4,12,2836,2787,0,0,1,0,13,7645
10,4,12,2836,2787,0,0,1,0,13,7862
10,4,12,2836,2787,0,0,1,0,13,7579
10,4,12,2836,2787,0,0,1,0,13,7452
10,4,12,2836,2787,0,0,1,0,13,7724
10,4,12,2836,2787,0,0,1,0,13,7466
10,4,12,2836,2787,0,0,1,0,13,7567
10,4,12,2836,2787,0,0,1,0,13,7602
10,4,12,2836,2787,0,0,1,0,13,7693
10,4,12,2836,2787,0,0,1,0,13,7490
10,4,12,2836,2787,0,0,1,0,13,7585
10,4,12,2836,2787,0,0,1,0,13,7588
10,4,12,2836,2787,0,0,1,0,13,7683
10,4,12,2836,2787,0,0,1,0,13,7541
10,4,12,2836,2787,0,0,1,0,13,7773
10,4,12,2836,2787,0,0,1,0,13,7674
10,4,12,2836,2787,0,0,1,0,13,7715
10,4,12,2836,2787,0,0,1,0,13,7617
10,4,12,2836,2787,0,0,1,0,13,7688
10,4,12,2836,2787,0,0,1,0,13,7519
10,4,12,2836,2787,0,0,1,0,13,7933
10,4,12,2836,2787,0,0,1,0,13,7762
10,4,12,2836,2787,0,0,1,0,13,7881
10,4,12,2836,2787,0,0,1,0,13,7535
10,4,12,2836,2787,0,0,1,0,13,7678
10,4,12,2836,2787,0,0,1,0,13,7585
10,4,12,2836,2787,0,0,1,0,13,7723
10,4,12,2836,2787,0,0,1,0,13,7842
10,4,12,2836,2787,0,0,1,0,13,7757
10,4,12,2836,2787,0,0,1,0,13,7709
10,4,12,2836,2787,0,0,1,0,13,7819
10,4,12,2836,2787,0,0,1,0,13,7585
10,4,12,2836,2787,0,0,1,0,13,7597
10,4,12,2836,2787,0,0,1,0,13,7648
10,4,12,2836,2787,0,0,1,0,13,7593
10,4,12,2836,2787,0,0,1,0,13,7747
10,5,12,3135,3135,0,0,0,0,12,6916
10,5,12,3135,3135,0,0,0,0,12,8318
10,5,12,3135,3135,0,0,0,0,12,8785
10,5,12,3135,3135,0,0,0,0,12,8625
10,5,12,3135,3135,0,0,0,0,12,20289
10,5,12,3135,3135,0,0,0,0,12,7867
10,5,12,3135,3135,0,0,0,0,12,7611
10,5,12,3135,3135,0,0,0,0,12,7745
10,5,12,3135,3135,0,0,0,0,12,7591
10,5,12,3135,3135,0,0,0,0,12,7725
10,5,12,3135,3135,0,0,0,0,12,7453
10,5,12,3135,3135,0,0,0,0,12,7786
10,5,12,3135,3135,0,0,0,0,12,8169
10,5,12,3135,3135,0,0,0,0,12,7836
10,5,12,3135,3135,0,0,0,0,12,7558
10,5,12,3135,3135,0,0,0,0,12,7622
10,5,12,3135,3135,0,0,0,0,12,7511
10,5,12,3135,3135,0,0,0,0,12,7584
10,5,12,3135,3135,0,0,0,0,12,7542
10,5,12,3135,3135,0,0,0,0,12,7716
10,5,12,3135,3135,0,0,0,0,12,7870
10,5,12,3135,3135,0,0,0,0,12,7779
10,5,12,3135,3135,0,0,0,0,12,7563
10,5,12,3135,3135,0,0,0,0,12,7654
10,5,12,3135,3135,0,0,0,0,12,7600
10,5,12,3135,3135,0,0,0,0,12,7641
10,5,12,3135,3135,0,0,0,0,12,7577
10,5,12,3135,3135,0,0,0,0,12,7792
10,5,12,3135,3135,0,0,0,0,12,7884
10,5,12,3135,3135,0,0,0,0,12,7322
10,5,12,3135,3135,0,0,0,0,12,7538
10,5,12,3135,3135,0,0,0,0,12,7676
10,5,12,3135,3135,0,0,0,0,12,19980
10,5,12,3135,3135,0,0,0,0,12,8595
10,5,12,3135,3135,0,0,0,0,12,8222
10,5,12,3135,3135,0,0,0,0,12,7650
10,5,12,3135,3135,0,0,0,0,12,7848
10,5,12,3135,3135,0,0,0,0,12,7932
10,5,12,3135,3135,0,0,0,0,12,7549
10,5,12,3135,3135,0,0,0,0,12,7887
10,5,12,3135,3135,0,0,0,0,12,7496
10,5,12,3135,3135,0,0,0,0,12,7734
10,5,12,3135,3135,0,0,0,0,12,7548
10,5,12,3135,3135,0,0,0,0,12,8064
10,5,12,3135,3135,0,0,0,0,12,8242
10,5,12,3135,3135,0,0,0,0,12,7894
10,5,12,3135,3135,0,0,0,0,12,8115
10,5,12,3135,3135,0,0,0,0,12,8413
10,5,12,3135,3135,0,0,0,0,12,7948
10,5,12,3135,3135,0,0,0,0,12,7624
10,5,12,3135,3135,0,0,0,0,12,7441
10,5,12,3135,3135,0,0,0,0,12,7973
10,5,12,3135,3135,0,0,0,0,12,8013
10,5,12,3135,3135,0,0,0,0,12,7842
10,5,12,3135,3135,0,0,0,0,12,7555
10,5,12,3135,3135,0,0,0,0,12,7825
10,5,12,3135,3135,0,0,0,0,12,7516
10,5,12,3135,3135,0,0,0,0,12,7772
10,5,12,3135,3135,0,0,0,0,12,7596
10,5,12,3135,3135,0,0,0,0,12,7655
10,5,12,3135,3135,0,0,0,0,12,7666
10,5,12,3135,3135,0,0,0,0,12,7761
10,5,12,3135,3135,0,0,0,0,12,7522
10,5,12,3135,3135,0,0,0,0,12,7862
10,5,12,3135,3135,0,0,0,0,12,7666
10,5,12,3135,3135,0,0,0,0,12,7726
10,5,12,3135,3135,0,0,0,0,12,7457
10,5,12,3135,3135,0,0,0,0,12,7805
10,5,12,3135,3135,0,0,0,0,12,7809
10,5,12,3135,3135,0,0,0,0,12,7598
10,5,12,3135,3135,0,0,0,0,12,7754
10,5,12,3135,3135,0,0,0,0,12,7472
10,5,12,3135,3135,0,0,0,0,12,7989
10,5,12,3135,3135,0,0,0,0,12,7549
10,5,12,3135,3135,0,0,0,0,12,8105
10,5,12,3135,3135,0,0,0,0,12,7821
10,5,12,3135,3135,0,0,0,0,12,7665
10,5,12,3135,3135,0,0,0,0,12,7848
10,5,12,3135,3135,0,0,0,0,12,8522
10,5,12,3135,3135,0,0,0,0,12,7704
10,5,12,3135,3135,0,0,0,0,12,7699
10,5,12,3135,3135,0,0,0,0,12,7956
10,5,12,3135,3135,0,0,0,0,12,7569
10,5,12,3135,3135,0,0,0,0,12,20342
10,5,12,3135,3135,0,0,0,0,12,8312
10,5,12,3135,3135,0,0,0,0,12,8151
10,5,12,3135,3135,0,0,0,0,12,7587
10,5,12,3135,3135,0,0,0,0,12,8066
10,5,12,3135,3135,0,0,0,0,12,7686
10,5,12,3135,3135,0,0,0,0,12,7546
10,5,12,3135,3135,0,0,0,0,12,7527
10,5,12,3135,3135,0,0,0,0,12,7864
10,5,12,3135,3135,0,0,0,0,12,7677
10,5,12,3135,3135,0,0,0,0,12,7706
10,5,12,3135,3135,0,0,0,0,12,7685
10,5,12,3135,3135,0,0,0,0,12,7614
10,5,12,3135,3135,0,0,0,0,12,7606
10,5,12,3135,3135,0,0,0,0,12,7671
10,5,12,3135,3135,0,0,0,0,12,7658
10,5,12,3135,3135,0,0,0,0,12,7999
6,10,12,3016,2435,0,0,4,0,11,26823
6,10,12,3016,2435,0,0,4,0,11,42994
6,10,12,3016,2435,0,0,4,0,11,29520
6,10,12,3016,2435,0,0,4,0,11,28858
6,10,12,3016,2435,0,0,4,0,11,39811
6,10,12,3016,2435,0,0,4,0,11,30673
6,10,12,3016,2435,0,0,4,0,11,30614
6,10,12,3016,2435,0,0,4,0,11,30655
6,10,12,3016,2435,0,0,4,0,11,40072
6,10,12,3016,2435,0,0,4,0,11,28802
6,10,12,3016,2435,0,0,4,0,11,28449
6,10,12,3016,2435,0,0,4,0,11,28885
6,10,12,3016,2435,0,0,4,0,11,28567
6,10,12,3016,2435,0,0,4,0,11,28342
6,10,12,3016,2435,0,0,4,0,11,28611
6,10,12,3016,2435,0,0,4,0,11,28261
6,10,12,3016,2435,0,0,4,0,11,28281
6,10,12,3016,2435,0,0,4,0,11,28211
6,10,12,3016,2435,0,0,4,0,11,28297
6,10,12,3016,2435,0,0,4,0,11,28627
6,10,12,3016,2435,0,0,4,0,11,28161
6,10,12,3016,2435,0,0,4,0,11,28181
6,10,12,3016,2435,0,0,4,0,11,28299
6,10,12,3016,2435,0,0,4,0,11,28894
6,10,12,3016,2435,0,0,4,0,11,28377
6,10,12,3016,2435,0,0,4,0,11,28414
6,10,12,3016,2435,0,0,4,0,11,28434
6,10,12,3016,2435,0,0,4,0,11,29260
6,10,12,3016,2435,0,0,4,0,11,28686
6,10,12,3016,2435,0,0,4,0,11,28710
6,10,12,3016,2435,0,0,4,0,11,28498
6,10,12,3016,2435,0,0,4,0,11,28528
6,10,12,3016,2435,0,0,4,0,11,28598
6,10,12,3016,2435,0,0,4,0,11,28600
6,10,12,3016,2435,0,0,4,0,11,28259
6,10,12,3016,2435,0,0,4,0,11,28460
6,10,12,3016,2435,0,0,4,0,11,28265
6,10,12,3016,2435,0,0,4,0,11,28332
6,10,12,3016,2435,0,0,4,0,11,28436
6,10,12,3016,2435,0,0,4,0,11,28813
6,10,12,3016,2435,0,0,4,0,11,28296
6,10,12,3016,2435,0,0,4,0,11,28925
6,10,12,3016,2435,0,0,4,0,11,28475
6,10,12,3016,2435,0,0,4,0,11,28138
6,10,12,3016,2435,0,0,4,0,11,28704
6,10,12,3016,2435,0,0,4,0,11,28239
6,10,12,3016,2435,0,0,4,0,11,28936
6,10,12,3016,2435,0,0,4,0,11,28962
6,10,12,3016,2435,0,0,4,0,11,28374
6,10,12,3016,2435,0,0,4,0,11,28488
6,10,12,3016,2435,0,0,4,0,11,29141
6,10,12,3016,2435,0,0,4,0,11,28191
6,10,12,3016,2435,0,0,4,0,11,28390
6,10,12,3016,2435,0,0,4,0,11,28479
6,10,12,3016,2435,0,0,4,0,11,28261
6,10,12,3016,2435,0,0,4,0,11,28265
6,10,12,3016,2435,0,0,4,0,11,28435
6,10,12,3016,2435,0,0,4,0,11,28525
6,10,12,3016,2435,0,0,4,0,11,28238
6,10,12,3016,2435,0,0,4,0,11,28651
6,10,12,3016,2435,0,0,4,0,11,28830
6,10,12,3016,2435,0,0,4,0,11,28392
6,10,12,3016,2435,0,0,4,0,11,28307
6,10,12,3016,2435,0,0,4,0,11,28505
6,10,12,3016,2435,0,0,4,0,11,28923
6,10,12,3016,2435,0,0,4,0,11,28554
6,10,12,3016,2435,0,0,4,0,11,28437
6,10,12,3016,2435,0,0,4,0,11,28152
6,10,12,3016,2435,0,0,4,0,11,43579
6,10,12,3016,2435,0,0,4,0,11,39609
6,10,12,3016,2435,0,0,4,0,11,28779
6,10,12,3016,2435,0,0,4,0,11,28578
6,10,12,3016,2435,0,0,4,0,11,28462
6,10,12,3016,2435,0,0,4,0,11,28412
6,10,12,3016,2435,0,0,4,0,11,28528
6,10,12,3016,2435,0,0,4,0,11,28357
6,10,12,3016,2435,0,0,4,0,11,28968
6,10,12,3016,2435,0,0,4,0,11,28351
6,10,12,3016,2435,0,0,4,0,11,28806
6,10,12,3016,2435,0,0,4,0,11,28435
6,10,12,3016,2435,0,0,4,0,11,28395
6,10,12,3016,2435,0,0,4,0,11,28407
6,10,12,3016,2435,0,0,4,0,11,28231
6,10,12,3016,2435,0,0,4,0,11,28601
6,10,12,3016,2435,0,0,4,0,11,28240
6,10,12,3016,2435,0,0,4,0,11,28557
6,10,12,3016,2435,0,0,4,0,11,28278
6,10,12,3016,2435,0,0,4,0,11,28623
6,10,12,3016,2435,0,0,4,0,11,28548
6,10,12,3016,2435,0,0,4,0,11,28624
6,10,12,3016,2435,0,0,4,0,11,28645
6,10,12,3016,2435,0,0,4,0,11,28472
6,10,12,3016,2435,0,0,4,0,11,28465
6,10,12,3016,2435,0,0,4,0,11,28287
6,10,12,3016,2435,0,0,4,0,11,39269
6,10,12,3016,2435,0,0,4,0,11,42069
6,10,12,3016,2435,0,0,4,0,11,28435
6,10,12,3016,2435,0,0,4,0,11,28784
6,10,12,3016,2435,0,0,4,0,11,29050
6,10,12,3016,2435,0,0,4,0,11,28797
1,16,12,717,611,1,0,1,0,4,35169
1,16,12,717,611,1,0,1,0,4,37322
1,16,12,717,611,1,0,1,0,4,36412
1,16,12,717,611,1,0,1,0,4,35977
1,16,12,717,611,1,0,1,0,4,35988
1,16,12,717,611,1,0,1,0,4,35777
1,16,12,717,611,1,0,1,0,4,35701
1,16,12,717,611,1,0,1,0,4,36165
1,16,12,717,611,1,0,1,0,4,35596
1,16,12,717,611,1,0,1,0,4,35651
1,16,12,717,611,1,0,1,0,4,36030
1,16,12,717,611,1,0,1,0,4,35757
1,16,12,717,611,1,0,1,0,4,35867
1,16,12,717,611,1,0,1,0,4,35557
1,16,12,717,611,1,0,1,0,4,35910
1,16,12,717,611,1,0,1,0,4,35464
1,16,12,717,611,1,0,1,0,4,35410
1,16,12,717,611,1,0,1,0,4,35641
1,16,12,717,611,1,0,1,0,4,35550
1,16,12,717,611,1,0,1,0,4,36115
1,16,12,717,611,1,0,1,0,4,35990
1,16,12,717,611,1,0,1,0,4,35797
1,16,12,717,611,1,0,1,0,4,36013
1,16,12,717,611,1,0,1,0,4,35663
1,16,12,717,611,1,0,1,0,4,35640
1,16,12,717,611,1,0,1,0,4,35553
1,16,12,717,611,1,0,1,0,4,35759
1,16,12,717,611,1,0,1,0,4,46552
1,16,12,717,611,1,0,1,0,4,48031
1,16,12,717,611,1,0,1,0,4,36002
1,16,12,717,611,1,0,1,0,4,35951
1,16,12,717,611,1,0,1,0,4,35832
1,16,12,717,611,1,0,1,0,4,36566
1,16,12,717,611,1,0,1,0,4,35628
1,16,12,717,611,1,0,1,0,4,35811
1,16,12,717,611,1,0,1,0,4,35947
1,16,12,717,611,1,0,1,0,4,36008
1,16,12,717,611,1,0,1,0,4,35830
1,16,12,717,611,1,0,1,0,4,35282
1,16,12,717,611,1,0,1,0,4,36003
1,16,12,717,611,1,0,1,0,4,35641
1,16,12,717,611,1,0,1,0,4,35825
1,16,12,717,611,1,0,1,0,4,36049
1,16,12,717,611,1,0,1,0,4,35851
1,16,12,717,611,1,0,1,0,4,35987
1,16,12,717,611,1,0,1,0,4,35585
1,16,12,717,611,1,0,1,0,4,35452
1,16,12,717,611,1,0,1,0,4,35624
1,16,12,717,611,1,0,1,0,4,35819
1,16,12,717,611,1,0,1,0,4,36093
1,16,12,717,611,1,0,1,0,4,36515
1,16,12,717,611,1,0,1,0,4,35833
1,16,12,717,611,1,0,1,0,4,35989
1,16,12,717,611,1,0,1,0,4,36030
1,16,12,717,611,1,0,1,0,4,35731
1,16,12,717,611,1,0,1,0,4,35846
1,16,12,717,611,1,0,1,0,4,35623
1,16,12,717,611,1,0,1,0,4,35707
1,16,12,717,611,1,0,1,0,4,35618
1,16,12,717,611,1,0,1,0,4,49277
1,16,12,717,611,1,0,1,0,4,47318
1,16,12,717,611,1,0,1,0,4,47086
1,16,12,717,611,1,0,1,0,4,35527
1,16,12,717,611,1,0,1,0,4,36010
1,16,12,717,611,1,0,1,0,4,35734
1,16,12,717,611,1,0,1,0,4,35585
1,16,12,717,611,1,0,1,0,4,36021
1,16,12,717,611,1,0,1,0,4,35649
1,16,12,717,611,1,0,1,0,4,35580
1,16,12,717,611,1,0,1,0,4,35920
1,16,12,717,611,1,0,1,0,4,35663
1,16,12,717,611,1,0,1,0,4,35955
1,16,12,717,611,1,0,1,0,4,35907
1,16,12,717,611,1,0,1,0,4,35944
1,16,12,717,611,1,0,1,0,4,35909
1,16,12,717,611,1,0,1,0,4,35746
1,16,12,717,611,1,0,1,0,4,35739
1,16,12,717,611,1,0,1,0,4,35927
1,16,12,717,611,1,0,1,0,4,35849
1,16,12,717,611,1,0,1,0,4,36054
1,16,12,717,611,1,0,1,0,4,36022
1,16,12,717,611,1,0,1,0,4,35679
1,16,12,717,611,1,0,1,0,4,36248
1,16,12,717,611,1,0,1,0,4,35625
1,16,12,717,611,1,0,1,0,4,35587
1,16,12,717,611,1,0,1,0,4,35897
1,16,12,717,611,1,0,1,0,4,35868
1,16,12,717,611,1,0,1,0,4,35769
1,16,12,717,611,1,0,1,0,4,35674
1,16,12,717,611,1,0,1,0,4,36141
1,16,12,717,611,1,0,1,0,4,36419
1,16,12,717,611,1,0,1,0,4,35538
1,16,12,717,611,1,0,1,0,4,35454
1,16,12,717,611,1,0,1,0,4,35620
1,16,12,717,611,1,0,1,0,4,35497
1,16,12,717,611,1,0,1,0,4,35694
1,16,12,717,611,1,0,1,0,4,36050
1,16,12,717,611,1,0,1,0,4,35638
1,16,12,717,611,1,0,1,0,4,35642
1,16,12,717,611,1,0,1,0,4,35863